,time,amplitude
0,-0.000360694,-0.4343
1,-0.000360692,-0.4343
2,-0.00036069,-0.4343
3,-0.000360688,-0.4343
4,-0.000360686,-0.4343
5,-0.000360684,-0.4343
6,-0.000360682,-0.4343
7,-0.00036068,-0.4343
8,-0.000360678,-0.4343
9,-0.000360676,-0.4343
10,-0.000360674,-0.4343
11,-0.000360672,-0.4343
12,-0.00036067,-0.4343
13,-0.000360668,-0.4343
14,-0.000360666,-0.4343
15,-0.000360664,-0.4343
16,-0.000360662,-0.4343
17,-0.00036066,-0.4343
18,-0.000360658,-0.4343
19,-0.000360656,-0.4343
20,-0.000360654,-0.4343
21,-0.000360652,-0.4343
22,-0.00036065,-0.4141
23,-0.000360648,-0.4141
24,-0.000360646,-0.4343
25,-0.000360644,-0.4343
26,-0.000360642,-0.4141
27,-0.00036064,-0.4343
28,-0.000360638,-0.4343
29,-0.000360636,-0.4343
30,-0.000360634,-0.4141
31,-0.000360632,-0.4141
32,-0.00036063,-0.4141
33,-0.000360628,-0.4343
34,-0.000360626,-0.4141
35,-0.000360624,-0.4343
36,-0.000360622,-0.4343
37,-0.00036062,-0.4343
38,-0.000360618,-0.4141
39,-0.000360616,-0.4343
40,-0.000360614,-0.4343
41,-0.000360612,-0.4343
42,-0.00036061,-0.4343
43,-0.000360608,-0.4343
44,-0.000360606,-0.4343
45,-0.000360604,-0.4343
46,-0.000360602,-0.4343
47,-0.0003606,-0.4343
48,-0.000360598,-0.4343
49,-0.000360596,-0.4343
50,-0.000360594,-0.4343
51,-0.000360592,-0.4343
52,-0.00036059,-0.4343
53,-0.000360588,-0.4343
54,-0.000360586,-0.4343
55,-0.000360584,-0.4343
56,-0.000360582,-0.4343
57,-0.00036058,-0.4343
58,-0.000360578,-0.4343
59,-0.000360576,-0.4343
60,-0.000360574,-0.4343
61,-0.000360572,-0.4343
62,-0.00036057,-0.4343
63,-0.000360568,-0.4343
64,-0.000360566,-0.4343
65,-0.000360564,-0.4343
66,-0.000360562,-0.4343
67,-0.00036056,-0.4343
68,-0.000360558,-0.4343
69,-0.000360556,-0.4141
70,-0.000360554,-0.4343
71,-0.000360552,-0.4343
72,-0.00036055,-0.4343
73,-0.000360548,-0.4343
74,-0.000360546,-0.4343
75,-0.000360544,-0.4343
76,-0.000360542,-0.4343
77,-0.00036054,-0.4343
78,-0.000360538,-0.4343
79,-0.000360536,-0.4343
80,-0.000360534,-0.4343
81,-0.000360532,-0.4343
82,-0.00036053,-0.4343
83,-0.000360528,-0.4343
84,-0.000360526,-0.4343
85,-0.000360524,-0.4343
86,-0.000360522,-0.4141
87,-0.00036052,-0.4343
88,-0.000360518,-0.4343
89,-0.000360516,-0.4343
90,-0.000360514,-0.4343
91,-0.000360512,-0.4343
92,-0.00036051,-0.4343
93,-0.000360508,-0.4343
94,-0.000360506,-0.4343
95,-0.000360504,-0.4343
96,-0.000360502,-0.4343
97,-0.0003605,-0.4343
98,-0.000360498,-0.4343
99,-0.000360496,-0.4343
100,-0.000360494,-0.4343
101,-0.000360492,-0.4343
102,-0.00036049,-0.4343
103,-0.000360488,-0.4343
104,-0.000360486,-0.4343
105,-0.000360484,-0.4343
106,-0.000360482,-0.4343
107,-0.00036048,-0.4343
108,-0.000360478,-0.4343
109,-0.000360476,-0.4343
110,-0.000360474,-0.4343
111,-0.000360472,-0.4343
112,-0.00036047,-0.4343
113,-0.000360468,-0.4343
114,-0.000360466,-0.4343
115,-0.000360464,-0.4343
116,-0.000360462,-0.4343
117,-0.00036046,-0.4343
118,-0.000360458,-0.4141
119,-0.000360456,-0.4343
120,-0.000360454,-0.4343
121,-0.000360452,-0.4343
122,-0.00036045,-0.4141
123,-0.000360448,-0.4141
124,-0.000360446,-0.4343
125,-0.000360444,-0.4343
126,-0.000360442,-0.4343
127,-0.00036044,-0.4141
128,-0.000360438,-0.4141
129,-0.000360436,-0.4141
130,-0.000360434,-0.4343
131,-0.000360432,-0.4343
132,-0.00036043,-0.4343
133,-0.000360428,-0.4343
134,-0.000360426,-0.4343
135,-0.000360424,-0.4141
136,-0.000360422,-0.4343
137,-0.00036042,-0.4343
138,-0.000360418,-0.4343
139,-0.000360416,-0.4343
140,-0.000360414,-0.4343
141,-0.000360412,-0.4343
142,-0.00036041,-0.4343
143,-0.000360408,-0.4343
144,-0.000360406,-0.4343
145,-0.000360404,-0.4343
146,-0.000360402,-0.4343
147,-0.0003604,-0.4343
148,-0.000360398,-0.4343
149,-0.000360396,-0.4343
150,-0.000360394,-0.4343
151,-0.000360392,-0.4343
152,-0.00036039,-0.4343
153,-0.000360388,-0.4343
154,-0.000360386,-0.4343
155,-0.000360384,-0.4343
156,-0.000360382,-0.4141
157,-0.00036038,-0.4343
158,-0.000360378,-0.4343
159,-0.000360376,-0.4343
160,-0.000360374,-0.4343
161,-0.000360372,-0.4141
162,-0.00036037,-0.4141
163,-0.000360368,-0.4141
164,-0.000360366,-0.4343
165,-0.000360364,-0.4343
166,-0.000360362,-0.4141
167,-0.00036036,-0.4141
168,-0.000360358,-0.4343
169,-0.000360356,-0.4141
170,-0.000360354,-0.4141
171,-0.000360352,-0.4343
172,-0.00036035,-0.4141
173,-0.000360348,-0.4343
174,-0.000360346,-0.4343
175,-0.000360344,-0.4343
176,-0.000360342,-0.4343
177,-0.00036034,-0.4141
178,-0.000360338,-0.4343
179,-0.000360336,-0.4343
180,-0.000360334,-0.4343
181,-0.000360332,-0.4141
182,-0.00036033,-0.4343
183,-0.000360328,-0.4343
184,-0.000360326,-0.4343
185,-0.000360324,-0.4343
186,-0.000360322,-0.4343
187,-0.00036032,-0.4141
188,-0.000360318,-0.4141
189,-0.000360316,-0.4141
190,-0.000360314,-0.4343
191,-0.000360312,-0.4343
192,-0.00036031,-0.4343
193,-0.000360308,-0.4343
194,-0.000360306,-0.4343
195,-0.000360304,-0.4343
196,-0.000360302,-0.4343
197,-0.0003603,-0.4343
198,-0.000360298,-0.4343
199,-0.000360296,-0.4343
200,-0.000360294,-0.4343
201,-0.000360292,-0.4343
202,-0.00036029,-0.4343
203,-0.000360288,-0.4343
204,-0.000360286,-0.4343
205,-0.000360284,-0.4141
206,-0.000360282,-0.4343
207,-0.00036028,-0.4343
208,-0.000360278,-0.4343
209,-0.000360276,-0.4343
210,-0.000360274,-0.4343
211,-0.000360272,-0.4343
212,-0.00036027,-0.4343
213,-0.000360268,-0.4343
214,-0.000360266,-0.4343
215,-0.000360264,-0.4343
216,-0.000360262,-0.4343
217,-0.00036026,-0.4141
218,-0.000360258,-0.4141
219,-0.000360256,-0.4141
220,-0.000360254,-0.4141
221,-0.000360252,-0.4141
222,-0.00036025,-0.4343
223,-0.000360248,-0.4141
224,-0.000360246,-0.4343
225,-0.000360244,-0.4343
226,-0.000360242,-0.4343
227,-0.00036024,-0.4343
228,-0.000360238,-0.4343
229,-0.000360236,-0.4343
230,-0.000360234,-0.4343
231,-0.000360232,-0.4343
232,-0.00036023,-0.4343
233,-0.000360228,-0.4141
234,-0.000360226,-0.4343
235,-0.000360224,-0.4343
236,-0.000360222,-0.4343
237,-0.00036022,-0.4343
238,-0.000360218,-0.4343
239,-0.000360216,-0.4343
240,-0.000360214,-0.4141
241,-0.000360212,-0.4343
242,-0.00036021,-0.4343
243,-0.000360208,-0.4343
244,-0.000360206,-0.4343
245,-0.000360204,-0.4343
246,-0.000360202,-0.4343
247,-0.0003602,-0.4141
248,-0.000360198,-0.4343
249,-0.000360196,-0.4343
250,-0.000360194,-0.4141
251,-0.000360192,-0.4141
252,-0.00036019,-0.4343
253,-0.000360188,-0.4343
254,-0.000360186,-0.4141
255,-0.000360184,-0.4141
256,-0.000360182,-0.4343
257,-0.00036018,-0.4343
258,-0.000360178,-0.4343
259,-0.000360176,-0.4343
260,-0.000360174,-0.4343
261,-0.000360172,-0.4141
262,-0.00036017,-0.4343
263,-0.000360168,-0.4141
264,-0.000360166,-0.4141
265,-0.000360164,-0.4141
266,-0.000360162,-0.4141
267,-0.00036016,-0.4141
268,-0.000360158,-0.4343
269,-0.000360156,-0.4343
270,-0.000360154,-0.4141
271,-0.000360152,-0.4141
272,-0.00036015,-0.4141
273,-0.000360148,-0.4343
274,-0.000360146,-0.4343
275,-0.000360144,-0.4343
276,-0.000360142,-0.4141
277,-0.00036014,-0.4141
278,-0.000360138,-0.4141
279,-0.000360136,-0.4141
280,-0.000360134,-0.4343
281,-0.000360132,-0.4343
282,-0.00036013,-0.4343
283,-0.000360128,-0.4343
284,-0.000360126,-0.4343
285,-0.000360124,-0.4141
286,-0.000360122,-0.4343
287,-0.00036012,-0.4343
288,-0.000360118,-0.4343
289,-0.000360116,-0.4343
290,-0.000360114,-0.4343
291,-0.000360112,-0.4343
292,-0.00036011,-0.4141
293,-0.000360108,-0.4141
294,-0.000360106,-0.4141
295,-0.000360104,-0.4141
296,-0.000360102,-0.4343
297,-0.0003601,-0.4141
298,-0.000360098,-0.4343
299,-0.000360096,-0.4343
300,-0.000360094,-0.4343
301,-0.000360092,-0.4343
302,-0.00036009,-0.4141
303,-0.000360088,-0.4141
304,-0.000360086,-0.4141
305,-0.000360084,-0.4343
306,-0.000360082,-0.4141
307,-0.00036008,-0.4141
308,-0.000360078,-0.4343
309,-0.000360076,-0.4343
310,-0.000360074,-0.4343
311,-0.000360072,-0.4343
312,-0.00036007,-0.4343
313,-0.000360068,-0.4141
314,-0.000360066,-0.4343
315,-0.000360064,-0.4343
316,-0.000360062,-0.4141
317,-0.00036006,-0.4141
318,-0.000360058,-0.4343
319,-0.000360056,-0.4343
320,-0.000360054,-0.4343
321,-0.000360052,-0.4343
322,-0.00036005,-0.4343
323,-0.000360048,-0.4343
324,-0.000360046,-0.4343
325,-0.000360044,-0.4141
326,-0.000360042,-0.4141
327,-0.00036004,-0.4141
328,-0.000360038,-0.4141
329,-0.000360036,-0.4141
330,-0.000360034,-0.4343
331,-0.000360032,-0.4343
332,-0.00036003,-0.4141
333,-0.000360028,-0.4141
334,-0.000360026,-0.4343
335,-0.000360024,-0.4343
336,-0.000360022,-0.4141
337,-0.00036002,-0.4343
338,-0.000360018,-0.4141
339,-0.000360016,-0.4141
340,-0.000360014,-0.4343
341,-0.000360012,-0.4343
342,-0.00036001,-0.4343
343,-0.000360008,-0.4141
344,-0.000360006,-0.4141
345,-0.000360004,-0.4343
346,-0.000360002,-0.4343
347,-0.00036,-0.4343
348,-0.000359998,-0.4343
349,-0.000359996,-0.4343
350,-0.000359994,-0.4343
351,-0.000359992,-0.4141
352,-0.00035999,-0.4141
353,-0.000359988,-0.4141
354,-0.000359986,-0.4343
355,-0.000359984,-0.4141
356,-0.000359982,-0.4141
357,-0.00035998,-0.4343
358,-0.000359978,-0.4343
359,-0.000359976,-0.4141
360,-0.000359974,-0.4141
361,-0.000359972,-0.4343
362,-0.00035997,-0.4343
363,-0.000359968,-0.4141
364,-0.000359966,-0.4343
365,-0.000359964,-0.4141
366,-0.000359962,-0.4343
367,-0.00035996,-0.4343
368,-0.000359958,-0.4343
369,-0.000359956,-0.4343
370,-0.000359954,-0.4343
371,-0.000359952,-0.4343
372,-0.00035995,-0.4343
373,-0.000359948,-0.4343
374,-0.000359946,-0.4343
375,-0.000359944,-0.4343
376,-0.000359942,-0.4343
377,-0.00035994,-0.4343
378,-0.000359938,-0.4343
379,-0.000359936,-0.4141
380,-0.000359934,-0.4343
381,-0.000359932,-0.4343
382,-0.00035993,-0.4343
383,-0.000359928,-0.4343
384,-0.000359926,-0.4343
385,-0.000359924,-0.4343
386,-0.000359922,-0.4343
387,-0.00035992,-0.4343
388,-0.000359918,-0.4343
389,-0.000359916,-0.4343
390,-0.000359914,-0.4343
391,-0.000359912,-0.4343
392,-0.00035991,-0.4343
393,-0.000359908,-0.4343
394,-0.000359906,-0.4141
395,-0.000359904,-0.4343
396,-0.000359902,-0.4343
397,-0.0003599,-0.4343
398,-0.000359898,-0.4343
399,-0.000359896,-0.4343
400,-0.000359894,-0.4343
401,-0.000359892,-0.4343
402,-0.00035989,-0.4343
403,-0.000359888,-0.4343
404,-0.000359886,-0.4343
405,-0.000359884,-0.4343
406,-0.000359882,-0.4343
407,-0.00035988,-0.4141
408,-0.000359878,-0.4141
409,-0.000359876,-0.4343
410,-0.000359874,-0.4343
411,-0.000359872,-0.4343
412,-0.00035987,-0.4141
413,-0.000359868,-0.4343
414,-0.000359866,-0.4343
415,-0.000359864,-0.4141
416,-0.000359862,-0.4343
417,-0.00035986,-0.4343
418,-0.000359858,-0.4343
419,-0.000359856,-0.4141
420,-0.000359854,-0.4141
421,-0.000359852,-0.4343
422,-0.00035985,-0.4343
423,-0.000359848,-0.4343
424,-0.000359846,-0.4343
425,-0.000359844,-0.4141
426,-0.000359842,-0.4343
427,-0.00035984,-0.4343
428,-0.000359838,-0.4343
429,-0.000359836,-0.4141
430,-0.000359834,-0.4343
431,-0.000359832,-0.4343
432,-0.00035983,-0.4343
433,-0.000359828,-0.4343
434,-0.000359826,-0.4343
435,-0.000359824,-0.4343
436,-0.000359822,-0.4343
437,-0.00035982,-0.4343
438,-0.000359818,-0.4141
439,-0.000359816,-0.4343
440,-0.000359814,-0.4343
441,-0.000359812,-0.4343
442,-0.00035981,-0.4343
443,-0.000359808,-0.4343
444,-0.000359806,-0.4343
445,-0.000359804,-0.4343
446,-0.000359802,-0.4343
447,-0.0003598,-0.4343
448,-0.000359798,-0.4343
449,-0.000359796,-0.4343
450,-0.000359794,-0.4343
451,-0.000359792,-0.4343
452,-0.00035979,-0.4141
453,-0.000359788,-0.4141
454,-0.000359786,-0.4343
455,-0.000359784,-0.4343
456,-0.000359782,-0.4343
457,-0.00035978,-0.4343
458,-0.000359778,-0.4343
459,-0.000359776,-0.4343
460,-0.000359774,-0.4141
461,-0.000359772,-0.4343
462,-0.00035977,-0.4343
463,-0.000359768,-0.4343
464,-0.000359766,-0.4343
465,-0.000359764,-0.4141
466,-0.000359762,-0.4343
467,-0.00035976,-0.4141
468,-0.000359758,-0.4141
469,-0.000359756,-0.4343
470,-0.000359754,-0.4343
471,-0.000359752,-0.4343
472,-0.00035975,-0.4343
473,-0.000359748,-0.4343
474,-0.000359746,-0.4343
475,-0.000359744,-0.4343
476,-0.000359742,-0.4343
477,-0.00035974,-0.4343
478,-0.000359738,-0.4343
479,-0.000359736,-0.4141
480,-0.000359734,-0.4141
481,-0.000359732,-0.4141
482,-0.00035973,-0.4141
483,-0.000359728,-0.4343
484,-0.000359726,-0.4343
485,-0.000359724,-0.4343
486,-0.000359722,-0.4343
487,-0.00035972,-0.4343
488,-0.000359718,-0.4141
489,-0.000359716,-0.4343
490,-0.000359714,-0.4343
491,-0.000359712,-0.4343
492,-0.00035971,-0.4343
493,-0.000359708,-0.4343
494,-0.000359706,-0.4343
495,-0.000359704,-0.4343
496,-0.000359702,-0.4141
497,-0.0003597,-0.4343
498,-0.000359698,-0.4343
499,-0.000359696,-0.4343
500,-0.000359694,-0.4343
501,-0.000359692,-0.4343
502,-0.00035969,-0.4343
503,-0.000359688,-0.4343
504,-0.000359686,-0.4343
505,-0.000359684,-0.4343
506,-0.000359682,-0.4343
507,-0.00035968,-0.4343
508,-0.000359678,-0.4343
509,-0.000359676,-0.4343
510,-0.000359674,-0.4343
511,-0.000359672,-0.4343
512,-0.00035967,-0.4343
513,-0.000359668,-0.4343
514,-0.000359666,-0.4141
515,-0.000359664,-0.4343
516,-0.000359662,-0.4343
517,-0.00035966,-0.4141
518,-0.000359658,-0.4141
519,-0.000359656,-0.4141
520,-0.000359654,-0.4141
521,-0.000359652,-0.4343
522,-0.00035965,-0.4343
523,-0.000359648,-0.4343
524,-0.000359646,-0.4343
525,-0.000359644,-0.4343
526,-0.000359642,-0.4343
527,-0.00035964,-0.4343
528,-0.000359638,-0.4141
529,-0.000359636,-0.4141
530,-0.000359634,-0.4141
531,-0.000359632,-0.4343
532,-0.00035963,-0.4343
533,-0.000359628,-0.4343
534,-0.000359626,-0.4343
535,-0.000359624,-0.4343
536,-0.000359622,-0.4343
537,-0.00035962,-0.4343
538,-0.000359618,-0.4343
539,-0.000359616,-0.4343
540,-0.000359614,-0.4343
541,-0.000359612,-0.4343
542,-0.00035961,-0.4343
543,-0.000359608,-0.4343
544,-0.000359606,-0.4343
545,-0.000359604,-0.4343
546,-0.000359602,-0.4343
547,-0.0003596,-0.4343
548,-0.000359598,-0.4343
549,-0.000359596,-0.4343
550,-0.000359594,-0.4343
551,-0.000359592,-0.4141
552,-0.00035959,-0.4343
553,-0.000359588,-0.4343
554,-0.000359586,-0.4343
555,-0.000359584,-0.4343
556,-0.000359582,-0.4343
557,-0.00035958,-0.4343
558,-0.000359578,-0.4343
559,-0.000359576,-0.4343
560,-0.000359574,-0.4343
561,-0.000359572,-0.4141
562,-0.00035957,-0.4343
563,-0.000359568,-0.4343
564,-0.000359566,-0.4343
565,-0.000359564,-0.4343
566,-0.000359562,-0.4343
567,-0.00035956,-0.4141
568,-0.000359558,-0.4141
569,-0.000359556,-0.4141
570,-0.000359554,-0.4343
571,-0.000359552,-0.4343
572,-0.00035955,-0.4343
573,-0.000359548,-0.4343
574,-0.000359546,-0.4343
575,-0.000359544,-0.4343
576,-0.000359542,-0.4343
577,-0.00035954,-0.4343
578,-0.000359538,-0.4343
579,-0.000359536,-0.4343
580,-0.000359534,-0.4141
581,-0.000359532,-0.4141
582,-0.00035953,-0.4141
583,-0.000359528,-0.4141
584,-0.000359526,-0.4141
585,-0.000359524,-0.4141
586,-0.000359522,-0.4141
587,-0.00035952,-0.4141
588,-0.000359518,-0.4343
589,-0.000359516,-0.4343
590,-0.000359514,-0.4343
591,-0.000359512,-0.4343
592,-0.00035951,-0.4343
593,-0.000359508,-0.4141
594,-0.000359506,-0.4141
595,-0.000359504,-0.4343
596,-0.000359502,-0.4141
597,-0.0003595,-0.4141
598,-0.000359498,-0.4141
599,-0.000359496,-0.4141
600,-0.000359494,-0.4141
601,-0.000359492,-0.4343
602,-0.00035949,-0.4343
603,-0.000359488,-0.4343
604,-0.000359486,-0.4343
605,-0.000359484,-0.4343
606,-0.000359482,-0.4343
607,-0.00035948,-0.4343
608,-0.000359478,-0.4343
609,-0.000359476,-0.4343
610,-0.000359474,-0.4343
611,-0.000359472,-0.4343
612,-0.00035947,-0.4343
613,-0.000359468,-0.4343
614,-0.000359466,-0.4343
615,-0.000359464,-0.4343
616,-0.000359462,-0.4141
617,-0.00035946,-0.4141
618,-0.000359458,-0.4141
619,-0.000359456,-0.4343
620,-0.000359454,-0.4343
621,-0.000359452,-0.4343
622,-0.00035945,-0.4343
623,-0.000359448,-0.4343
624,-0.000359446,-0.4343
625,-0.000359444,-0.4343
626,-0.000359442,-0.4141
627,-0.00035944,-0.4343
628,-0.000359438,-0.4343
629,-0.000359436,-0.4343
630,-0.000359434,-0.4343
631,-0.000359432,-0.4343
632,-0.00035943,-0.4141
633,-0.000359428,-0.4343
634,-0.000359426,-0.4343
635,-0.000359424,-0.4343
636,-0.000359422,-0.4141
637,-0.00035942,-0.4141
638,-0.000359418,-0.4343
639,-0.000359416,-0.4343
640,-0.000359414,-0.4343
641,-0.000359412,-0.4343
642,-0.00035941,-0.4343
643,-0.000359408,-0.4343
644,-0.000359406,-0.4343
645,-0.000359404,-0.4343
646,-0.000359402,-0.4141
647,-0.0003594,-0.4141
648,-0.000359398,-0.4141
649,-0.000359396,-0.4343
650,-0.000359394,-0.4343
651,-0.000359392,-0.4343
652,-0.00035939,-0.4343
653,-0.000359388,-0.4343
654,-0.000359386,-0.4343
655,-0.000359384,-0.4343
656,-0.000359382,-0.4343
657,-0.00035938,-0.4343
658,-0.000359378,-0.4343
659,-0.000359376,-0.4141
660,-0.000359374,-0.4343
661,-0.000359372,-0.4343
662,-0.00035937,-0.4343
663,-0.000359368,-0.4343
664,-0.000359366,-0.4343
665,-0.000359364,-0.4343
666,-0.000359362,-0.4343
667,-0.00035936,-0.4343
668,-0.000359358,-0.4343
669,-0.000359356,-0.4141
670,-0.000359354,-0.4141
671,-0.000359352,-0.4343
672,-0.00035935,-0.4343
673,-0.000359348,-0.4343
674,-0.000359346,-0.4343
675,-0.000359344,-0.4343
676,-0.000359342,-0.4343
677,-0.00035934,-0.4343
678,-0.000359338,-0.4343
679,-0.000359336,-0.4343
680,-0.000359334,-0.4343
681,-0.000359332,-0.4343
682,-0.00035933,-0.4343
683,-0.000359328,-0.4343
684,-0.000359326,-0.4343
685,-0.000359324,-0.4343
686,-0.000359322,-0.4343
687,-0.00035932,-0.4343
688,-0.000359318,-0.4343
689,-0.000359316,-0.4343
690,-0.000359314,-0.4343
691,-0.000359312,-0.4343
692,-0.00035931,-0.4141
693,-0.000359308,-0.4141
694,-0.000359306,-0.4343
695,-0.000359304,-0.4343
696,-0.000359302,-0.4343
697,-0.0003593,-0.4343
698,-0.000359298,-0.4343
699,-0.000359296,-0.4343
700,-0.000359294,-0.4343
701,-0.000359292,-0.4343
702,-0.00035929,-0.4343
703,-0.000359288,-0.4343
704,-0.000359286,-0.4343
705,-0.000359284,-0.4343
706,-0.000359282,-0.4343
707,-0.00035928,-0.4343
708,-0.000359278,-0.4343
709,-0.000359276,-0.4343
710,-0.000359274,-0.4343
711,-0.000359272,-0.4343
712,-0.00035927,-0.4343
713,-0.000359268,-0.4343
714,-0.000359266,-0.4343
715,-0.000359264,-0.4343
716,-0.000359262,-0.4343
717,-0.00035926,-0.4343
718,-0.000359258,-0.4343
719,-0.000359256,-0.4343
720,-0.000359254,-0.4343
721,-0.000359252,-0.4141
722,-0.00035925,-0.4343
723,-0.000359248,-0.4343
724,-0.000359246,-0.4343
725,-0.000359244,-0.4343
726,-0.000359242,-0.4343
727,-0.00035924,-0.4343
728,-0.000359238,-0.4343
729,-0.000359236,-0.4343
730,-0.000359234,-0.4343
731,-0.000359232,-0.4343
732,-0.00035923,-0.4343
733,-0.000359228,-0.4141
734,-0.000359226,-0.4141
735,-0.000359224,-0.4141
736,-0.000359222,-0.4343
737,-0.00035922,-0.4343
738,-0.000359218,-0.4343
739,-0.000359216,-0.4343
740,-0.000359214,-0.4343
741,-0.000359212,-0.4343
742,-0.00035921,-0.4343
743,-0.000359208,-0.4343
744,-0.000359206,-0.4141
745,-0.000359204,-0.4343
746,-0.000359202,-0.4343
747,-0.0003592,-0.4343
748,-0.000359198,-0.4343
749,-0.000359196,-0.4343
750,-0.000359194,-0.4343
751,-0.000359192,-0.4343
752,-0.00035919,-0.4343
753,-0.000359188,-0.4343
754,-0.000359186,-0.4343
755,-0.000359184,-0.4343
756,-0.000359182,-0.4141
757,-0.00035918,-0.4343
758,-0.000359178,-0.4343
759,-0.000359176,-0.4343
760,-0.000359174,-0.4141
761,-0.000359172,-0.4343
762,-0.00035917,-0.4343
763,-0.000359168,-0.4343
764,-0.000359166,-0.4141
765,-0.000359164,-0.4141
766,-0.000359162,-0.4141
767,-0.00035916,-0.4141
768,-0.000359158,-0.4141
769,-0.000359156,-0.4141
770,-0.000359154,-0.4343
771,-0.000359152,-0.4343
772,-0.00035915,-0.4141
773,-0.000359148,-0.4343
774,-0.000359146,-0.4343
775,-0.000359144,-0.4343
776,-0.000359142,-0.4343
777,-0.00035914,-0.4343
778,-0.000359138,-0.4343
779,-0.000359136,-0.4343
780,-0.000359134,-0.4343
781,-0.000359132,-0.4141
782,-0.00035913,-0.4141
783,-0.000359128,-0.4141
784,-0.000359126,-0.4141
785,-0.000359124,-0.4343
786,-0.000359122,-0.4343
787,-0.00035912,-0.4343
788,-0.000359118,-0.4343
789,-0.000359116,-0.4141
790,-0.000359114,-0.4141
791,-0.000359112,-0.4343
792,-0.00035911,-0.4343
793,-0.000359108,-0.4343
794,-0.000359106,-0.4343
795,-0.000359104,-0.4343
796,-0.000359102,-0.4141
797,-0.0003591,-0.4343
798,-0.000359098,-0.4141
799,-0.000359096,-0.4141
800,-0.000359094,-0.4343
801,-0.000359092,-0.4343
802,-0.00035909,-0.4343
803,-0.000359088,-0.4343
804,-0.000359086,-0.4141
805,-0.000359084,-0.4141
806,-0.000359082,-0.4343
807,-0.00035908,-0.4343
808,-0.000359078,-0.4343
809,-0.000359076,-0.4343
810,-0.000359074,-0.4343
811,-0.000359072,-0.4343
812,-0.00035907,-0.4343
813,-0.000359068,-0.4141
814,-0.000359066,-0.4141
815,-0.000359064,-0.4343
816,-0.000359062,-0.4343
817,-0.00035906,-0.4343
818,-0.000359058,-0.4343
819,-0.000359056,-0.4141
820,-0.000359054,-0.4343
821,-0.000359052,-0.4343
822,-0.00035905,-0.4343
823,-0.000359048,-0.4343
824,-0.000359046,-0.4343
825,-0.000359044,-0.4343
826,-0.000359042,-0.4141
827,-0.00035904,-0.4343
828,-0.000359038,-0.4343
829,-0.000359036,-0.4141
830,-0.000359034,-0.4141
831,-0.000359032,-0.4343
832,-0.00035903,-0.4343
833,-0.000359028,-0.4343
834,-0.000359026,-0.4141
835,-0.000359024,-0.4343
836,-0.000359022,-0.4343
837,-0.00035902,-0.4141
838,-0.000359018,-0.4141
839,-0.000359016,-0.4141
840,-0.000359014,-0.4343
841,-0.000359012,-0.4141
842,-0.00035901,-0.4343
843,-0.000359008,-0.4343
844,-0.000359006,-0.4343
845,-0.000359004,-0.4343
846,-0.000359002,-0.4343
847,-0.000359,-0.4141
848,-0.000358998,-0.4343
849,-0.000358996,-0.4343
850,-0.000358994,-0.4343
851,-0.000358992,-0.4343
852,-0.00035899,-0.4343
853,-0.000358988,-0.4343
854,-0.000358986,-0.4343
855,-0.000358984,-0.4343
856,-0.000358982,-0.4343
857,-0.00035898,-0.4343
858,-0.000358978,-0.4343
859,-0.000358976,-0.4141
860,-0.000358974,-0.4141
861,-0.000358972,-0.4343
862,-0.00035897,-0.4343
863,-0.000358968,-0.4343
864,-0.000358966,-0.4343
865,-0.000358964,-0.4343
866,-0.000358962,-0.4343
867,-0.00035896,-0.4343
868,-0.000358958,-0.4343
869,-0.000358956,-0.4141
870,-0.000358954,-0.4141
871,-0.000358952,-0.4343
872,-0.00035895,-0.4141
873,-0.000358948,-0.4343
874,-0.000358946,-0.4343
875,-0.000358944,-0.4343
876,-0.000358942,-0.4141
877,-0.00035894,-0.4343
878,-0.000358938,-0.4343
879,-0.000358936,-0.4343
880,-0.000358934,-0.4343
881,-0.000358932,-0.4343
882,-0.00035893,-0.4343
883,-0.000358928,-0.4343
884,-0.000358926,-0.4343
885,-0.000358924,-0.4343
886,-0.000358922,-0.4343
887,-0.00035892,-0.4343
888,-0.000358918,-0.4343
889,-0.000358916,-0.4343
890,-0.000358914,-0.4343
891,-0.000358912,-0.4343
892,-0.00035891,-0.4343
893,-0.000358908,-0.4343
894,-0.000358906,-0.4343
895,-0.000358904,-0.4343
896,-0.000358902,-0.4343
897,-0.0003589,-0.4141
898,-0.000358898,-0.4343
899,-0.000358896,-0.4343
900,-0.000358894,-0.4343
901,-0.000358892,-0.4141
902,-0.00035889,-0.4343
903,-0.000358888,-0.4343
904,-0.000358886,-0.4141
905,-0.000358884,-0.4141
906,-0.000358882,-0.4141
907,-0.00035888,-0.4343
908,-0.000358878,-0.4343
909,-0.000358876,-0.4343
910,-0.000358874,-0.4343
911,-0.000358872,-0.4343
912,-0.00035887,-0.4141
913,-0.000358868,-0.4141
914,-0.000358866,-0.4141
915,-0.000358864,-0.4141
916,-0.000358862,-0.4141
917,-0.00035886,-0.4141
918,-0.000358858,-0.4141
919,-0.000358856,-0.4141
920,-0.000358854,-0.4343
921,-0.000358852,-0.4343
922,-0.00035885,-0.4343
923,-0.000358848,-0.4343
924,-0.000358846,-0.4343
925,-0.000358844,-0.4141
926,-0.000358842,-0.4343
927,-0.00035884,-0.4343
928,-0.000358838,-0.4343
929,-0.000358836,-0.4343
930,-0.000358834,-0.4343
931,-0.000358832,-0.4343
932,-0.00035883,-0.4141
933,-0.000358828,-0.4343
934,-0.000358826,-0.4343
935,-0.000358824,-0.4343
936,-0.000358822,-0.4343
937,-0.00035882,-0.4343
938,-0.000358818,-0.4343
939,-0.000358816,-0.4343
940,-0.000358814,-0.4343
941,-0.000358812,-0.4343
942,-0.00035881,-0.4343
943,-0.000358808,-0.4343
944,-0.000358806,-0.4343
945,-0.000358804,-0.4343
946,-0.000358802,-0.4343
947,-0.0003588,-0.4343
948,-0.000358798,-0.4141
949,-0.000358796,-0.4141
950,-0.000358794,-0.4343
951,-0.000358792,-0.4343
952,-0.00035879,-0.4343
953,-0.000358788,-0.4343
954,-0.000358786,-0.4343
955,-0.000358784,-0.4343
956,-0.000358782,-0.4141
957,-0.00035878,-0.4141
958,-0.000358778,-0.4343
959,-0.000358776,-0.4343
960,-0.000358774,-0.4343
961,-0.000358772,-0.4343
962,-0.00035877,-0.4343
963,-0.000358768,-0.4343
964,-0.000358766,-0.4343
965,-0.000358764,-0.4343
966,-0.000358762,-0.4343
967,-0.00035876,-0.4343
968,-0.000358758,-0.4141
969,-0.000358756,-0.4141
970,-0.000358754,-0.4343
971,-0.000358752,-0.4343
972,-0.00035875,-0.4141
973,-0.000358748,-0.4141
974,-0.000358746,-0.4343
975,-0.000358744,-0.4343
976,-0.000358742,-0.4141
977,-0.00035874,-0.4141
978,-0.000358738,-0.4343
979,-0.000358736,-0.4343
980,-0.000358734,-0.4141
981,-0.000358732,-0.4343
982,-0.00035873,-0.4141
983,-0.000358728,-0.4141
984,-0.000358726,-0.4141
985,-0.000358724,-0.4343
986,-0.000358722,-0.4343
987,-0.00035872,-0.4343
988,-0.000358718,-0.4141
989,-0.000358716,-0.4343
990,-0.000358714,-0.4141
991,-0.000358712,-0.4343
992,-0.00035871,-0.4343
993,-0.000358708,-0.4343
994,-0.000358706,-0.4343
995,-0.000358704,-0.4343
996,-0.000358702,-0.4343
997,-0.0003587,-0.4343
998,-0.000358698,-0.4343
999,-0.000358696,-0.4343
1000,-0.000358694,-0.4343
1001,-0.000358692,-0.4343
1002,-0.00035869,-0.4141
1003,-0.000358688,-0.4141
1004,-0.000358686,-0.4343
1005,-0.000358684,-0.4343
1006,-0.000358682,-0.4343
1007,-0.00035868,-0.4343
1008,-0.000358678,-0.4343
1009,-0.000358676,-0.4343
1010,-0.000358674,-0.4141
1011,-0.000358672,-0.4343
1012,-0.00035867,-0.4343
1013,-0.000358668,-0.4343
1014,-0.000358666,-0.4343
1015,-0.000358664,-0.4343
1016,-0.000358662,-0.4141
1017,-0.00035866,-0.4343
1018,-0.000358658,-0.4343
1019,-0.000358656,-0.4343
1020,-0.000358654,-0.4343
1021,-0.000358652,-0.4343
1022,-0.00035865,-0.4343
1023,-0.000358648,-0.4343
1024,-0.000358646,-0.4343
1025,-0.000358644,-0.4343
1026,-0.000358642,-0.4343
1027,-0.00035864,-0.4343
1028,-0.000358638,-0.4343
1029,-0.000358636,-0.4343
1030,-0.000358634,-0.4343
1031,-0.000358632,-0.4343
1032,-0.00035863,-0.4343
1033,-0.000358628,-0.4343
1034,-0.000358626,-0.4343
1035,-0.000358624,-0.4343
1036,-0.000358622,-0.4343
1037,-0.00035862,-0.4343
1038,-0.000358618,-0.4343
1039,-0.000358616,-0.4141
1040,-0.000358614,-0.4343
1041,-0.000358612,-0.4343
1042,-0.00035861,-0.4141
1043,-0.000358608,-0.4141
1044,-0.000358606,-0.4141
1045,-0.000358604,-0.4141
1046,-0.000358602,-0.4141
1047,-0.0003586,-0.4343
1048,-0.000358598,-0.4343
1049,-0.000358596,-0.4141
1050,-0.000358594,-0.4141
1051,-0.000358592,-0.4343
1052,-0.00035859,-0.4141
1053,-0.000358588,-0.4343
1054,-0.000358586,-0.4343
1055,-0.000358584,-0.4343
1056,-0.000358582,-0.4141
1057,-0.00035858,-0.4343
1058,-0.000358578,-0.4343
1059,-0.000358576,-0.4343
1060,-0.000358574,-0.4343
1061,-0.000358572,-0.4343
1062,-0.00035857,-0.4343
1063,-0.000358568,-0.4343
1064,-0.000358566,-0.4343
1065,-0.000358564,-0.4141
1066,-0.000358562,-0.4343
1067,-0.00035856,-0.4343
1068,-0.000358558,-0.4343
1069,-0.000358556,-0.4343
1070,-0.000358554,-0.4343
1071,-0.000358552,-0.4343
1072,-0.00035855,-0.4141
1073,-0.000358548,-0.4141
1074,-0.000358546,-0.4141
1075,-0.000358544,-0.4343
1076,-0.000358542,-0.4141
1077,-0.00035854,-0.4343
1078,-0.000358538,-0.4343
1079,-0.000358536,-0.4343
1080,-0.000358534,-0.4343
1081,-0.000358532,-0.4343
1082,-0.00035853,-0.4343
1083,-0.000358528,-0.4141
1084,-0.000358526,-0.4343
1085,-0.000358524,-0.4343
1086,-0.000358522,-0.4343
1087,-0.00035852,-0.4343
1088,-0.000358518,-0.4343
1089,-0.000358516,-0.4343
1090,-0.000358514,-0.4343
1091,-0.000358512,-0.4343
1092,-0.00035851,-0.4343
1093,-0.000358508,-0.4141
1094,-0.000358506,-0.4343
1095,-0.000358504,-0.4343
1096,-0.000358502,-0.4343
1097,-0.0003585,-0.4343
1098,-0.000358498,-0.4141
1099,-0.000358496,-0.4141
1100,-0.000358494,-0.4141
1101,-0.000358492,-0.4343
1102,-0.00035849,-0.4343
1103,-0.000358488,-0.4343
1104,-0.000358486,-0.4343
1105,-0.000358484,-0.4343
1106,-0.000358482,-0.4343
1107,-0.00035848,-0.4343
1108,-0.000358478,-0.4343
1109,-0.000358476,-0.4343
1110,-0.000358474,-0.4141
1111,-0.000358472,-0.4343
1112,-0.00035847,-0.4343
1113,-0.000358468,-0.4343
1114,-0.000358466,-0.4343
1115,-0.000358464,-0.4343
1116,-0.000358462,-0.4343
1117,-0.00035846,-0.4343
1118,-0.000358458,-0.4343
1119,-0.000358456,-0.4343
1120,-0.000358454,-0.4343
1121,-0.000358452,-0.4343
1122,-0.00035845,-0.4343
1123,-0.000358448,-0.4343
1124,-0.000358446,-0.4343
1125,-0.000358444,-0.4343
1126,-0.000358442,-0.4343
1127,-0.00035844,-0.4343
1128,-0.000358438,-0.4343
1129,-0.000358436,-0.4343
1130,-0.000358434,-0.4343
1131,-0.000358432,-0.4343
1132,-0.00035843,-0.4343
1133,-0.000358428,-0.4141
1134,-0.000358426,-0.4141
1135,-0.000358424,-0.4141
1136,-0.000358422,-0.4343
1137,-0.00035842,-0.4343
1138,-0.000358418,-0.4343
1139,-0.000358416,-0.4343
1140,-0.000358414,-0.4343
1141,-0.000358412,-0.4343
1142,-0.00035841,-0.4343
1143,-0.000358408,-0.4343
1144,-0.000358406,-0.4343
1145,-0.000358404,-0.4343
1146,-0.000358402,-0.4141
1147,-0.0003584,-0.4141
1148,-0.000358398,-0.4343
1149,-0.000358396,-0.4343
1150,-0.000358394,-0.4343
1151,-0.000358392,-0.4343
1152,-0.00035839,-0.4343
1153,-0.000358388,-0.4343
1154,-0.000358386,-0.4343
1155,-0.000358384,-0.4343
1156,-0.000358382,-0.4343
1157,-0.00035838,-0.4343
1158,-0.000358378,-0.4343
1159,-0.000358376,-0.4343
1160,-0.000358374,-0.4343
1161,-0.000358372,-0.4343
1162,-0.00035837,-0.4343
1163,-0.000358368,-0.4343
1164,-0.000358366,-0.4343
1165,-0.000358364,-0.4343
1166,-0.000358362,-0.4141
1167,-0.00035836,-0.4343
1168,-0.000358358,-0.4141
1169,-0.000358356,-0.4343
1170,-0.000358354,-0.4343
1171,-0.000358352,-0.4343
1172,-0.00035835,-0.4343
1173,-0.000358348,-0.4343
1174,-0.000358346,-0.4343
1175,-0.000358344,-0.4343
1176,-0.000358342,-0.4343
1177,-0.00035834,-0.4343
1178,-0.000358338,-0.4343
1179,-0.000358336,-0.4343
1180,-0.000358334,-0.4141
1181,-0.000358332,-0.4343
1182,-0.00035833,-0.4343
1183,-0.000358328,-0.4343
1184,-0.000358326,-0.4343
1185,-0.000358324,-0.4343
1186,-0.000358322,-0.4343
1187,-0.00035832,-0.4343
1188,-0.000358318,-0.4343
1189,-0.000358316,-0.4343
1190,-0.000358314,-0.4343
1191,-0.000358312,-0.4343
1192,-0.00035831,-0.4343
1193,-0.000358308,-0.4141
1194,-0.000358306,-0.4343
1195,-0.000358304,-0.4141
1196,-0.000358302,-0.4343
1197,-0.0003583,-0.4343
1198,-0.000358298,-0.4343
1199,-0.000358296,-0.4343
1200,-0.000358294,-0.4141
1201,-0.000358292,-0.4343
1202,-0.00035829,-0.4343
1203,-0.000358288,-0.4343
1204,-0.000358286,-0.4343
1205,-0.000358284,-0.4343
1206,-0.000358282,-0.4141
1207,-0.00035828,-0.4141
1208,-0.000358278,-0.4141
1209,-0.000358276,-0.4343
1210,-0.000358274,-0.4343
1211,-0.000358272,-0.4343
1212,-0.00035827,-0.4343
1213,-0.000358268,-0.4141
1214,-0.000358266,-0.4343
1215,-0.000358264,-0.4343
1216,-0.000358262,-0.4343
1217,-0.00035826,-0.4343
1218,-0.000358258,-0.4343
1219,-0.000358256,-0.4343
1220,-0.000358254,-0.4343
1221,-0.000358252,-0.4343
1222,-0.00035825,-0.4343
1223,-0.000358248,-0.4343
1224,-0.000358246,-0.4141
1225,-0.000358244,-0.4343
1226,-0.000358242,-0.4141
1227,-0.00035824,-0.4141
1228,-0.000358238,-0.4343
1229,-0.000358236,-0.4343
1230,-0.000358234,-0.4343
1231,-0.000358232,-0.4343
1232,-0.00035823,-0.4343
1233,-0.000358228,-0.4343
1234,-0.000358226,-0.4141
1235,-0.000358224,-0.4141
1236,-0.000358222,-0.4141
1237,-0.00035822,-0.4141
1238,-0.000358218,-0.4343
1239,-0.000358216,-0.4343
1240,-0.000358214,-0.4343
1241,-0.000358212,-0.4343
1242,-0.00035821,-0.4141
1243,-0.000358208,-0.4343
1244,-0.000358206,-0.4343
1245,-0.000358204,-0.4343
1246,-0.000358202,-0.4343
1247,-0.0003582,-0.4343
1248,-0.000358198,-0.4343
1249,-0.000358196,-0.4141
1250,-0.000358194,-0.4141
1251,-0.000358192,-0.4343
1252,-0.00035819,-0.4343
1253,-0.000358188,-0.4343
1254,-0.000358186,-0.4343
1255,-0.000358184,-0.4141
1256,-0.000358182,-0.4343
1257,-0.00035818,-0.4343
1258,-0.000358178,-0.4343
1259,-0.000358176,-0.4141
1260,-0.000358174,-0.4343
1261,-0.000358172,-0.4343
1262,-0.00035817,-0.4141
1263,-0.000358168,-0.4141
1264,-0.000358166,-0.4343
1265,-0.000358164,-0.4343
1266,-0.000358162,-0.4343
1267,-0.00035816,-0.4343
1268,-0.000358158,-0.4343
1269,-0.000358156,-0.4343
1270,-0.000358154,-0.4343
1271,-0.000358152,-0.4141
1272,-0.00035815,-0.4343
1273,-0.000358148,-0.4343
1274,-0.000358146,-0.4343
1275,-0.000358144,-0.4141
1276,-0.000358142,-0.4141
1277,-0.00035814,-0.4141
1278,-0.000358138,-0.4343
1279,-0.000358136,-0.4343
1280,-0.000358134,-0.4343
1281,-0.000358132,-0.4343
1282,-0.00035813,-0.4343
1283,-0.000358128,-0.4343
1284,-0.000358126,-0.4343
1285,-0.000358124,-0.4141
1286,-0.000358122,-0.4343
1287,-0.00035812,-0.4343
1288,-0.000358118,-0.4343
1289,-0.000358116,-0.4141
1290,-0.000358114,-0.4141
1291,-0.000358112,-0.4343
1292,-0.00035811,-0.4343
1293,-0.000358108,-0.4343
1294,-0.000358106,-0.4343
1295,-0.000358104,-0.4343
1296,-0.000358102,-0.4343
1297,-0.0003581,-0.4141
1298,-0.000358098,-0.4343
1299,-0.000358096,-0.4343
1300,-0.000358094,-0.4343
1301,-0.000358092,-0.4343
1302,-0.00035809,-0.4343
1303,-0.000358088,-0.4343
1304,-0.000358086,-0.4343
1305,-0.000358084,-0.4343
1306,-0.000358082,-0.4343
1307,-0.00035808,-0.4343
1308,-0.000358078,-0.4343
1309,-0.000358076,-0.4343
1310,-0.000358074,-0.4343
1311,-0.000358072,-0.4343
1312,-0.00035807,-0.4343
1313,-0.000358068,-0.4343
1314,-0.000358066,-0.4141
1315,-0.000358064,-0.4343
1316,-0.000358062,-0.4141
1317,-0.00035806,-0.4343
1318,-0.000358058,-0.4343
1319,-0.000358056,-0.4343
1320,-0.000358054,-0.4343
1321,-0.000358052,-0.4343
1322,-0.00035805,-0.4343
1323,-0.000358048,-0.4343
1324,-0.000358046,-0.4343
1325,-0.000358044,-0.4343
1326,-0.000358042,-0.4343
1327,-0.00035804,-0.4343
1328,-0.000358038,-0.4343
1329,-0.000358036,-0.4141
1330,-0.000358034,-0.4141
1331,-0.000358032,-0.4343
1332,-0.00035803,-0.4343
1333,-0.000358028,-0.4343
1334,-0.000358026,-0.4343
1335,-0.000358024,-0.4343
1336,-0.000358022,-0.4343
1337,-0.00035802,-0.4141
1338,-0.000358018,-0.4141
1339,-0.000358016,-0.4343
1340,-0.000358014,-0.4343
1341,-0.000358012,-0.4343
1342,-0.00035801,-0.4343
1343,-0.000358008,-0.4141
1344,-0.000358006,-0.4343
1345,-0.000358004,-0.4343
1346,-0.000358002,-0.4343
1347,-0.000358,-0.4343
1348,-0.000357998,-0.4343
1349,-0.000357996,-0.4343
1350,-0.000357994,-0.4343
1351,-0.000357992,-0.4343
1352,-0.00035799,-0.4141
1353,-0.000357988,-0.4343
1354,-0.000357986,-0.4141
1355,-0.000357984,-0.4343
1356,-0.000357982,-0.4141
1357,-0.00035798,-0.4343
1358,-0.000357978,-0.4141
1359,-0.000357976,-0.4141
1360,-0.000357974,-0.4141
1361,-0.000357972,-0.4343
1362,-0.00035797,-0.4343
1363,-0.000357968,-0.4343
1364,-0.000357966,-0.4343
1365,-0.000357964,-0.4343
1366,-0.000357962,-0.4141
1367,-0.00035796,-0.4141
1368,-0.000357958,-0.4141
1369,-0.000357956,-0.4141
1370,-0.000357954,-0.4343
1371,-0.000357952,-0.4343
1372,-0.00035795,-0.4343
1373,-0.000357948,-0.4141
1374,-0.000357946,-0.4141
1375,-0.000357944,-0.4141
1376,-0.000357942,-0.4141
1377,-0.00035794,-0.4343
1378,-0.000357938,-0.4343
1379,-0.000357936,-0.4343
1380,-0.000357934,-0.4343
1381,-0.000357932,-0.4343
1382,-0.00035793,-0.4343
1383,-0.000357928,-0.4343
1384,-0.000357926,-0.4343
1385,-0.000357924,-0.4343
1386,-0.000357922,-0.4343
1387,-0.00035792,-0.4343
1388,-0.000357918,-0.4343
1389,-0.000357916,-0.4343
1390,-0.000357914,-0.4343
1391,-0.000357912,-0.4343
1392,-0.00035791,-0.4141
1393,-0.000357908,-0.4343
1394,-0.000357906,-0.4343
1395,-0.000357904,-0.4343
1396,-0.000357902,-0.4343
1397,-0.0003579,-0.4343
1398,-0.000357898,-0.4343
1399,-0.000357896,-0.4343
1400,-0.000357894,-0.4343
1401,-0.000357892,-0.4343
1402,-0.00035789,-0.4343
1403,-0.000357888,-0.4343
1404,-0.000357886,-0.4343
1405,-0.000357884,-0.4343
1406,-0.000357882,-0.4343
1407,-0.00035788,-0.4141
1408,-0.000357878,-0.4141
1409,-0.000357876,-0.4141
1410,-0.000357874,-0.4343
1411,-0.000357872,-0.4343
1412,-0.00035787,-0.4343
1413,-0.000357868,-0.4141
1414,-0.000357866,-0.4141
1415,-0.000357864,-0.4141
1416,-0.000357862,-0.4343
1417,-0.00035786,-0.4343
1418,-0.000357858,-0.4343
1419,-0.000357856,-0.4141
1420,-0.000357854,-0.4343
1421,-0.000357852,-0.4343
1422,-0.00035785,-0.4343
1423,-0.000357848,-0.4343
1424,-0.000357846,-0.4343
1425,-0.000357844,-0.4343
1426,-0.000357842,-0.4343
1427,-0.00035784,-0.4343
1428,-0.000357838,-0.4343
1429,-0.000357836,-0.4343
1430,-0.000357834,-0.4343
1431,-0.000357832,-0.4343
1432,-0.00035783,-0.4343
1433,-0.000357828,-0.4343
1434,-0.000357826,-0.4343
1435,-0.000357824,-0.4141
1436,-0.000357822,-0.4343
1437,-0.00035782,-0.4343
1438,-0.000357818,-0.4343
1439,-0.000357816,-0.4343
1440,-0.000357814,-0.4343
1441,-0.000357812,-0.4343
1442,-0.00035781,-0.4141
1443,-0.000357808,-0.4343
1444,-0.000357806,-0.4343
1445,-0.000357804,-0.4343
1446,-0.000357802,-0.4343
1447,-0.0003578,-0.4343
1448,-0.000357798,-0.4343
1449,-0.000357796,-0.4343
1450,-0.000357794,-0.4343
1451,-0.000357792,-0.4343
1452,-0.00035779,-0.4141
1453,-0.000357788,-0.4141
1454,-0.000357786,-0.4141
1455,-0.000357784,-0.4343
1456,-0.000357782,-0.4343
1457,-0.00035778,-0.4343
1458,-0.000357778,-0.4343
1459,-0.000357776,-0.4343
1460,-0.000357774,-0.4343
1461,-0.000357772,-0.4343
1462,-0.00035777,-0.4343
1463,-0.000357768,-0.4343
1464,-0.000357766,-0.4343
1465,-0.000357764,-0.4343
1466,-0.000357762,-0.4343
1467,-0.00035776,-0.4343
1468,-0.000357758,-0.4343
1469,-0.000357756,-0.4343
1470,-0.000357754,-0.4343
1471,-0.000357752,-0.4141
1472,-0.00035775,-0.4141
1473,-0.000357748,-0.4343
1474,-0.000357746,-0.4141
1475,-0.000357744,-0.4141
1476,-0.000357742,-0.4343
1477,-0.00035774,-0.4343
1478,-0.000357738,-0.4343
1479,-0.000357736,-0.4343
1480,-0.000357734,-0.4343
1481,-0.000357732,-0.4343
1482,-0.00035773,-0.4141
1483,-0.000357728,-0.4141
1484,-0.000357726,-0.4141
1485,-0.000357724,-0.4343
1486,-0.000357722,-0.4343
1487,-0.00035772,-0.4343
1488,-0.000357718,-0.4343
1489,-0.000357716,-0.4343
1490,-0.000357714,-0.4343
1491,-0.000357712,-0.4343
1492,-0.00035771,-0.4141
1493,-0.000357708,-0.4343
1494,-0.000357706,-0.4343
1495,-0.000357704,-0.4343
1496,-0.000357702,-0.4343
1497,-0.0003577,-0.4141
1498,-0.000357698,-0.4141
1499,-0.000357696,-0.4141
1500,-0.000357694,-0.4343
1501,-0.000357692,-0.4343
1502,-0.00035769,-0.4343
1503,-0.000357688,-0.4343
1504,-0.000357686,-0.4343
1505,-0.000357684,-0.4141
1506,-0.000357682,-0.4141
1507,-0.00035768,-0.4343
1508,-0.000357678,-0.4343
1509,-0.000357676,-0.4343
1510,-0.000357674,-0.4343
1511,-0.000357672,-0.4343
1512,-0.00035767,-0.4343
1513,-0.000357668,-0.4343
1514,-0.000357666,-0.4343
1515,-0.000357664,-0.4343
1516,-0.000357662,-0.4343
1517,-0.00035766,-0.4141
1518,-0.000357658,-0.4343
1519,-0.000357656,-0.4343
1520,-0.000357654,-0.4343
1521,-0.000357652,-0.4141
1522,-0.00035765,-0.4141
1523,-0.000357648,-0.4343
1524,-0.000357646,-0.4343
1525,-0.000357644,-0.4141
1526,-0.000357642,-0.4343
1527,-0.00035764,-0.4141
1528,-0.000357638,-0.4343
1529,-0.000357636,-0.4343
1530,-0.000357634,-0.4343
1531,-0.000357632,-0.4343
1532,-0.00035763,-0.4141
1533,-0.000357628,-0.4141
1534,-0.000357626,-0.4141
1535,-0.000357624,-0.4141
1536,-0.000357622,-0.4141
1537,-0.00035762,-0.4141
1538,-0.000357618,-0.4141
1539,-0.000357616,-0.4141
1540,-0.000357614,-0.4343
1541,-0.000357612,-0.4141
1542,-0.00035761,-0.4141
1543,-0.000357608,-0.4141
1544,-0.000357606,-0.4141
1545,-0.000357604,-0.4343
1546,-0.000357602,-0.4343
1547,-0.0003576,-0.4343
1548,-0.000357598,-0.4141
1549,-0.000357596,-0.4343
1550,-0.000357594,-0.4343
1551,-0.000357592,-0.4141
1552,-0.00035759,-0.4343
1553,-0.000357588,-0.4343
1554,-0.000357586,-0.4343
1555,-0.000357584,-0.4343
1556,-0.000357582,-0.4343
1557,-0.00035758,-0.4343
1558,-0.000357578,-0.4343
1559,-0.000357576,-0.4343
1560,-0.000357574,-0.4141
1561,-0.000357572,-0.4343
1562,-0.00035757,-0.4343
1563,-0.000357568,-0.4343
1564,-0.000357566,-0.4343
1565,-0.000357564,-0.4343
1566,-0.000357562,-0.4343
1567,-0.00035756,-0.4343
1568,-0.000357558,-0.4343
1569,-0.000357556,-0.4343
1570,-0.000357554,-0.4141
1571,-0.000357552,-0.4141
1572,-0.00035755,-0.4343
1573,-0.000357548,-0.4343
1574,-0.000357546,-0.4343
1575,-0.000357544,-0.4343
1576,-0.000357542,-0.4343
1577,-0.00035754,-0.4141
1578,-0.000357538,-0.4343
1579,-0.000357536,-0.4343
1580,-0.000357534,-0.4343
1581,-0.000357532,-0.4141
1582,-0.00035753,-0.4343
1583,-0.000357528,-0.4343
1584,-0.000357526,-0.4141
1585,-0.000357524,-0.4343
1586,-0.000357522,-0.4141
1587,-0.00035752,-0.4141
1588,-0.000357518,-0.4343
1589,-0.000357516,-0.4343
1590,-0.000357514,-0.4343
1591,-0.000357512,-0.4343
1592,-0.00035751,-0.4343
1593,-0.000357508,-0.4343
1594,-0.000357506,-0.4343
1595,-0.000357504,-0.4141
1596,-0.000357502,-0.4343
1597,-0.0003575,-0.4343
1598,-0.000357498,-0.4343
1599,-0.000357496,-0.4343
1600,-0.000357494,-0.4343
1601,-0.000357492,-0.4343
1602,-0.00035749,-0.4141
1603,-0.000357488,-0.4141
1604,-0.000357486,-0.4343
1605,-0.000357484,-0.4343
1606,-0.000357482,-0.4343
1607,-0.00035748,-0.4343
1608,-0.000357478,-0.4343
1609,-0.000357476,-0.4343
1610,-0.000357474,-0.4343
1611,-0.000357472,-0.4343
1612,-0.00035747,-0.4343
1613,-0.000357468,-0.4343
1614,-0.000357466,-0.4141
1615,-0.000357464,-0.4141
1616,-0.000357462,-0.4343
1617,-0.00035746,-0.4343
1618,-0.000357458,-0.4343
1619,-0.000357456,-0.4141
1620,-0.000357454,-0.4141
1621,-0.000357452,-0.4141
1622,-0.00035745,-0.4343
1623,-0.000357448,-0.4141
1624,-0.000357446,-0.4141
1625,-0.000357444,-0.4343
1626,-0.000357442,-0.4343
1627,-0.00035744,-0.4343
1628,-0.000357438,-0.4141
1629,-0.000357436,-0.4141
1630,-0.000357434,-0.4343
1631,-0.000357432,-0.4343
1632,-0.00035743,-0.4141
1633,-0.000357428,-0.4141
1634,-0.000357426,-0.4343
1635,-0.000357424,-0.4343
1636,-0.000357422,-0.4343
1637,-0.00035742,-0.4343
1638,-0.000357418,-0.4343
1639,-0.000357416,-0.4343
1640,-0.000357414,-0.4343
1641,-0.000357412,-0.4343
1642,-0.00035741,-0.4141
1643,-0.000357408,-0.4343
1644,-0.000357406,-0.4343
1645,-0.000357404,-0.4343
1646,-0.000357402,-0.4343
1647,-0.0003574,-0.4343
1648,-0.000357398,-0.4343
1649,-0.000357396,-0.4141
1650,-0.000357394,-0.4141
1651,-0.000357392,-0.4343
1652,-0.00035739,-0.4343
1653,-0.000357388,-0.4343
1654,-0.000357386,-0.4343
1655,-0.000357384,-0.4343
1656,-0.000357382,-0.4141
1657,-0.00035738,-0.4141
1658,-0.000357378,-0.4343
1659,-0.000357376,-0.4141
1660,-0.000357374,-0.4141
1661,-0.000357372,-0.4141
1662,-0.00035737,-0.4141
1663,-0.000357368,-0.4141
1664,-0.000357366,-0.4141
1665,-0.000357364,-0.4141
1666,-0.000357362,-0.4343
1667,-0.00035736,-0.4343
1668,-0.000357358,-0.4141
1669,-0.000357356,-0.4343
1670,-0.000357354,-0.4343
1671,-0.000357352,-0.4343
1672,-0.00035735,-0.4343
1673,-0.000357348,-0.4343
1674,-0.000357346,-0.4343
1675,-0.000357344,-0.4343
1676,-0.000357342,-0.4343
1677,-0.00035734,-0.4343
1678,-0.000357338,-0.4343
1679,-0.000357336,-0.4343
1680,-0.000357334,-0.4343
1681,-0.000357332,-0.4141
1682,-0.00035733,-0.4343
1683,-0.000357328,-0.4343
1684,-0.000357326,-0.4343
1685,-0.000357324,-0.4141
1686,-0.000357322,-0.4343
1687,-0.00035732,-0.4343
1688,-0.000357318,-0.4343
1689,-0.000357316,-0.4343
1690,-0.000357314,-0.4343
1691,-0.000357312,-0.4343
1692,-0.00035731,-0.4343
1693,-0.000357308,-0.4343
1694,-0.000357306,-0.4343
1695,-0.000357304,-0.4343
1696,-0.000357302,-0.4343
1697,-0.0003573,-0.4343
1698,-0.000357298,-0.4343
1699,-0.000357296,-0.4343
1700,-0.000357294,-0.4343
1701,-0.000357292,-0.4343
1702,-0.00035729,-0.4343
1703,-0.000357288,-0.4343
1704,-0.000357286,-0.4343
1705,-0.000357284,-0.4343
1706,-0.000357282,-0.4141
1707,-0.00035728,-0.4343
1708,-0.000357278,-0.4343
1709,-0.000357276,-0.4343
1710,-0.000357274,-0.4343
1711,-0.000357272,-0.4343
1712,-0.00035727,-0.4141
1713,-0.000357268,-0.4141
1714,-0.000357266,-0.4343
1715,-0.000357264,-0.4343
1716,-0.000357262,-0.4343
1717,-0.00035726,-0.4343
1718,-0.000357258,-0.4343
1719,-0.000357256,-0.4343
1720,-0.000357254,-0.4343
1721,-0.000357252,-0.4343
1722,-0.00035725,-0.4343
1723,-0.000357248,-0.4343
1724,-0.000357246,-0.4343
1725,-0.000357244,-0.4343
1726,-0.000357242,-0.4343
1727,-0.00035724,-0.4343
1728,-0.000357238,-0.4141
1729,-0.000357236,-0.4343
1730,-0.000357234,-0.4343
1731,-0.000357232,-0.4141
1732,-0.00035723,-0.4343
1733,-0.000357228,-0.4343
1734,-0.000357226,-0.4343
1735,-0.000357224,-0.4343
1736,-0.000357222,-0.4141
1737,-0.00035722,-0.4343
1738,-0.000357218,-0.4141
1739,-0.000357216,-0.4141
1740,-0.000357214,-0.4343
1741,-0.000357212,-0.4343
1742,-0.00035721,-0.4141
1743,-0.000357208,-0.4141
1744,-0.000357206,-0.4141
1745,-0.000357204,-0.4141
1746,-0.000357202,-0.4343
1747,-0.0003572,-0.4343
1748,-0.000357198,-0.4343
1749,-0.000357196,-0.4343
1750,-0.000357194,-0.4343
1751,-0.000357192,-0.4141
1752,-0.00035719,-0.4141
1753,-0.000357188,-0.4343
1754,-0.000357186,-0.4343
1755,-0.000357184,-0.4343
1756,-0.000357182,-0.4343
1757,-0.00035718,-0.4141
1758,-0.000357178,-0.4141
1759,-0.000357176,-0.4343
1760,-0.000357174,-0.4343
1761,-0.000357172,-0.4343
1762,-0.00035717,-0.4343
1763,-0.000357168,-0.4343
1764,-0.000357166,-0.4343
1765,-0.000357164,-0.4343
1766,-0.000357162,-0.4343
1767,-0.00035716,-0.4343
1768,-0.000357158,-0.4343
1769,-0.000357156,-0.4141
1770,-0.000357154,-0.4141
1771,-0.000357152,-0.4141
1772,-0.00035715,-0.4141
1773,-0.000357148,-0.4343
1774,-0.000357146,-0.4343
1775,-0.000357144,-0.4343
1776,-0.000357142,-0.4343
1777,-0.00035714,-0.4343
1778,-0.000357138,-0.4343
1779,-0.000357136,-0.4343
1780,-0.000357134,-0.4343
1781,-0.000357132,-0.4343
1782,-0.00035713,-0.4141
1783,-0.000357128,-0.4343
1784,-0.000357126,-0.4343
1785,-0.000357124,-0.4343
1786,-0.000357122,-0.4343
1787,-0.00035712,-0.4141
1788,-0.000357118,-0.4343
1789,-0.000357116,-0.4343
1790,-0.000357114,-0.4343
1791,-0.000357112,-0.4343
1792,-0.00035711,-0.4343
1793,-0.000357108,-0.4343
1794,-0.000357106,-0.4343
1795,-0.000357104,-0.4343
1796,-0.000357102,-0.4343
1797,-0.0003571,-0.4343
1798,-0.000357098,-0.4343
1799,-0.000357096,-0.4343
1800,-0.000357094,-0.4343
1801,-0.000357092,-0.4141
1802,-0.00035709,-0.4343
1803,-0.000357088,-0.4343
1804,-0.000357086,-0.4343
1805,-0.000357084,-0.4343
1806,-0.000357082,-0.4343
1807,-0.00035708,-0.4343
1808,-0.000357078,-0.4141
1809,-0.000357076,-0.4141
1810,-0.000357074,-0.4343
1811,-0.000357072,-0.4343
1812,-0.00035707,-0.4343
1813,-0.000357068,-0.4343
1814,-0.000357066,-0.4343
1815,-0.000357064,-0.4343
1816,-0.000357062,-0.4141
1817,-0.00035706,-0.4141
1818,-0.000357058,-0.4141
1819,-0.000357056,-0.4141
1820,-0.000357054,-0.4343
1821,-0.000357052,-0.4343
1822,-0.00035705,-0.4343
1823,-0.000357048,-0.4141
1824,-0.000357046,-0.4343
1825,-0.000357044,-0.4141
1826,-0.000357042,-0.4343
1827,-0.00035704,-0.4343
1828,-0.000357038,-0.4343
1829,-0.000357036,-0.4141
1830,-0.000357034,-0.4141
1831,-0.000357032,-0.4141
1832,-0.00035703,-0.4141
1833,-0.000357028,-0.4343
1834,-0.000357026,-0.4343
1835,-0.000357024,-0.4141
1836,-0.000357022,-0.4343
1837,-0.00035702,-0.4343
1838,-0.000357018,-0.4343
1839,-0.000357016,-0.4343
1840,-0.000357014,-0.4141
1841,-0.000357012,-0.4141
1842,-0.00035701,-0.4141
1843,-0.000357008,-0.4141
1844,-0.000357006,-0.4141
1845,-0.000357004,-0.4343
1846,-0.000357002,-0.4343
1847,-0.000357,-0.4343
1848,-0.000356998,-0.4343
1849,-0.000356996,-0.4343
1850,-0.000356994,-0.4343
1851,-0.000356992,-0.4343
1852,-0.00035699,-0.4343
1853,-0.000356988,-0.4343
1854,-0.000356986,-0.4343
1855,-0.000356984,-0.4343
1856,-0.000356982,-0.4343
1857,-0.00035698,-0.4343
1858,-0.000356978,-0.4343
1859,-0.000356976,-0.4343
1860,-0.000356974,-0.4343
1861,-0.000356972,-0.4343
1862,-0.00035697,-0.4343
1863,-0.000356968,-0.4343
1864,-0.000356966,-0.4343
1865,-0.000356964,-0.4141
1866,-0.000356962,-0.4141
1867,-0.00035696,-0.4343
1868,-0.000356958,-0.4343
1869,-0.000356956,-0.4343
1870,-0.000356954,-0.4343
1871,-0.000356952,-0.4343
1872,-0.00035695,-0.4343
1873,-0.000356948,-0.4343
1874,-0.000356946,-0.4343
1875,-0.000356944,-0.4343
1876,-0.000356942,-0.4343
1877,-0.00035694,-0.4343
1878,-0.000356938,-0.4141
1879,-0.000356936,-0.4343
1880,-0.000356934,-0.4343
1881,-0.000356932,-0.4343
1882,-0.00035693,-0.4343
1883,-0.000356928,-0.4343
1884,-0.000356926,-0.4343
1885,-0.000356924,-0.4343
1886,-0.000356922,-0.4343
1887,-0.00035692,-0.4141
1888,-0.000356918,-0.4141
1889,-0.000356916,-0.4141
1890,-0.000356914,-0.4343
1891,-0.000356912,-0.4343
1892,-0.00035691,-0.4141
1893,-0.000356908,-0.4141
1894,-0.000356906,-0.4343
1895,-0.000356904,-0.4343
1896,-0.000356902,-0.4343
1897,-0.0003569,-0.4343
1898,-0.000356898,-0.4141
1899,-0.000356896,-0.4343
1900,-0.000356894,-0.4343
1901,-0.000356892,-0.4141
1902,-0.00035689,-0.4343
1903,-0.000356888,-0.4141
1904,-0.000356886,-0.4141
1905,-0.000356884,-0.4141
1906,-0.000356882,-0.4343
1907,-0.00035688,-0.4343
1908,-0.000356878,-0.4343
1909,-0.000356876,-0.4343
1910,-0.000356874,-0.4343
1911,-0.000356872,-0.4343
1912,-0.00035687,-0.4343
1913,-0.000356868,-0.4141
1914,-0.000356866,-0.4343
1915,-0.000356864,-0.4343
1916,-0.000356862,-0.4343
1917,-0.00035686,-0.4141
1918,-0.000356858,-0.4343
1919,-0.000356856,-0.4343
1920,-0.000356854,-0.4343
1921,-0.000356852,-0.4141
1922,-0.00035685,-0.4343
1923,-0.000356848,-0.4343
1924,-0.000356846,-0.4343
1925,-0.000356844,-0.4343
1926,-0.000356842,-0.4343
1927,-0.00035684,-0.4343
1928,-0.000356838,-0.4343
1929,-0.000356836,-0.4141
1930,-0.000356834,-0.4141
1931,-0.000356832,-0.4141
1932,-0.00035683,-0.4343
1933,-0.000356828,-0.4343
1934,-0.000356826,-0.4343
1935,-0.000356824,-0.4343
1936,-0.000356822,-0.4141
1937,-0.00035682,-0.4141
1938,-0.000356818,-0.4141
1939,-0.000356816,-0.4343
1940,-0.000356814,-0.4141
1941,-0.000356812,-0.4343
1942,-0.00035681,-0.4343
1943,-0.000356808,-0.4343
1944,-0.000356806,-0.4343
1945,-0.000356804,-0.4343
1946,-0.000356802,-0.4343
1947,-0.0003568,-0.4343
1948,-0.000356798,-0.4343
1949,-0.000356796,-0.4141
1950,-0.000356794,-0.4343
1951,-0.000356792,-0.4343
1952,-0.00035679,-0.4343
1953,-0.000356788,-0.4343
1954,-0.000356786,-0.4343
1955,-0.000356784,-0.4343
1956,-0.000356782,-0.4343
1957,-0.00035678,-0.4343
1958,-0.000356778,-0.4343
1959,-0.000356776,-0.4343
1960,-0.000356774,-0.4343
1961,-0.000356772,-0.4343
1962,-0.00035677,-0.4343
1963,-0.000356768,-0.4343
1964,-0.000356766,-0.4343
1965,-0.000356764,-0.4343
1966,-0.000356762,-0.4343
1967,-0.00035676,-0.4343
1968,-0.000356758,-0.4343
1969,-0.000356756,-0.4343
1970,-0.000356754,-0.4343
1971,-0.000356752,-0.4343
1972,-0.00035675,-0.4343
1973,-0.000356748,-0.4343
1974,-0.000356746,-0.4343
1975,-0.000356744,-0.4343
1976,-0.000356742,-0.4141
1977,-0.00035674,-0.4343
1978,-0.000356738,-0.4343
1979,-0.000356736,-0.4343
1980,-0.000356734,-0.4343
1981,-0.000356732,-0.4141
1982,-0.00035673,-0.4141
1983,-0.000356728,-0.4343
1984,-0.000356726,-0.4343
1985,-0.000356724,-0.4343
1986,-0.000356722,-0.4141
1987,-0.00035672,-0.4343
1988,-0.000356718,-0.4343
1989,-0.000356716,-0.4343
1990,-0.000356714,-0.4343
1991,-0.000356712,-0.4343
1992,-0.00035671,-0.4343
1993,-0.000356708,-0.4141
1994,-0.000356706,-0.4141
1995,-0.000356704,-0.4343
1996,-0.000356702,-0.4343
1997,-0.0003567,-0.4141
1998,-0.000356698,-0.4141
1999,-0.000356696,-0.4343
2000,-0.000356694,-0.4343
2001,-0.000356692,-0.4141
2002,-0.00035669,-0.4141
2003,-0.000356688,-0.4343
2004,-0.000356686,-0.4343
2005,-0.000356684,-0.4343
2006,-0.000356682,-0.4343
2007,-0.00035668,-0.4343
2008,-0.000356678,-0.4343
2009,-0.000356676,-0.4141
2010,-0.000356674,-0.4141
2011,-0.000356672,-0.4343
2012,-0.00035667,-0.4141
2013,-0.000356668,-0.4343
2014,-0.000356666,-0.4343
2015,-0.000356664,-0.4343
2016,-0.000356662,-0.4343
2017,-0.00035666,-0.4343
2018,-0.000356658,-0.4343
2019,-0.000356656,-0.4343
2020,-0.000356654,-0.4343
2021,-0.000356652,-0.4141
2022,-0.00035665,-0.4343
2023,-0.000356648,-0.4141
2024,-0.000356646,-0.4141
2025,-0.000356644,-0.4343
2026,-0.000356642,-0.4343
2027,-0.00035664,-0.4343
2028,-0.000356638,-0.4343
2029,-0.000356636,-0.4343
2030,-0.000356634,-0.4343
2031,-0.000356632,-0.4343
2032,-0.00035663,-0.4343
2033,-0.000356628,-0.4343
2034,-0.000356626,-0.4343
2035,-0.000356624,-0.4343
2036,-0.000356622,-0.4343
2037,-0.00035662,-0.4343
2038,-0.000356618,-0.4343
2039,-0.000356616,-0.4343
2040,-0.000356614,-0.4343
2041,-0.000356612,-0.4343
2042,-0.00035661,-0.4343
2043,-0.000356608,-0.4343
2044,-0.000356606,-0.4141
2045,-0.000356604,-0.4141
2046,-0.000356602,-0.4141
2047,-0.0003566,-0.4343
2048,-0.000356598,-0.4343
2049,-0.000356596,-0.4343
2050,-0.000356594,-0.4343
2051,-0.000356592,-0.4343
2052,-0.00035659,-0.4343
2053,-0.000356588,-0.4343
2054,-0.000356586,-0.4343
2055,-0.000356584,-0.4343
2056,-0.000356582,-0.4343
2057,-0.00035658,-0.4343
2058,-0.000356578,-0.4343
2059,-0.000356576,-0.4343
2060,-0.000356574,-0.4141
2061,-0.000356572,-0.4141
2062,-0.00035657,-0.4343
2063,-0.000356568,-0.4343
2064,-0.000356566,-0.4343
2065,-0.000356564,-0.4141
2066,-0.000356562,-0.4343
2067,-0.00035656,-0.4343
2068,-0.000356558,-0.4343
2069,-0.000356556,-0.4343
2070,-0.000356554,-0.4343
2071,-0.000356552,-0.4343
2072,-0.00035655,-0.4343
2073,-0.000356548,-0.4343
2074,-0.000356546,-0.4343
2075,-0.000356544,-0.4343
2076,-0.000356542,-0.4343
2077,-0.00035654,-0.4343
2078,-0.000356538,-0.4343
2079,-0.000356536,-0.4343
2080,-0.000356534,-0.4343
2081,-0.000356532,-0.4141
2082,-0.00035653,-0.4141
2083,-0.000356528,-0.4141
2084,-0.000356526,-0.4343
2085,-0.000356524,-0.4343
2086,-0.000356522,-0.4343
2087,-0.00035652,-0.4343
2088,-0.000356518,-0.4343
2089,-0.000356516,-0.4343
2090,-0.000356514,-0.4343
2091,-0.000356512,-0.4343
2092,-0.00035651,-0.4343
2093,-0.000356508,-0.4343
2094,-0.000356506,-0.4141
2095,-0.000356504,-0.4343
2096,-0.000356502,-0.4343
2097,-0.0003565,-0.4343
2098,-0.000356498,-0.4141
2099,-0.000356496,-0.4343
2100,-0.000356494,-0.4343
2101,-0.000356492,-0.4343
2102,-0.00035649,-0.4343
2103,-0.000356488,-0.4343
2104,-0.000356486,-0.4343
2105,-0.000356484,-0.4343
2106,-0.000356482,-0.4141
2107,-0.00035648,-0.4141
2108,-0.000356478,-0.4141
2109,-0.000356476,-0.4141
2110,-0.000356474,-0.4343
2111,-0.000356472,-0.4343
2112,-0.00035647,-0.4343
2113,-0.000356468,-0.4343
2114,-0.000356466,-0.4343
2115,-0.000356464,-0.4141
2116,-0.000356462,-0.4343
2117,-0.00035646,-0.4343
2118,-0.000356458,-0.4343
2119,-0.000356456,-0.4141
2120,-0.000356454,-0.4343
2121,-0.000356452,-0.4343
2122,-0.00035645,-0.4343
2123,-0.000356448,-0.4343
2124,-0.000356446,-0.4343
2125,-0.000356444,-0.4343
2126,-0.000356442,-0.4343
2127,-0.00035644,-0.4343
2128,-0.000356438,-0.4343
2129,-0.000356436,-0.4343
2130,-0.000356434,-0.4343
2131,-0.000356432,-0.4343
2132,-0.00035643,-0.4343
2133,-0.000356428,-0.4343
2134,-0.000356426,-0.4343
2135,-0.000356424,-0.4343
2136,-0.000356422,-0.4343
2137,-0.00035642,-0.4343
2138,-0.000356418,-0.4343
2139,-0.000356416,-0.4343
2140,-0.000356414,-0.4343
2141,-0.000356412,-0.4343
2142,-0.00035641,-0.4343
2143,-0.000356408,-0.4343
2144,-0.000356406,-0.4343
2145,-0.000356404,-0.4343
2146,-0.000356402,-0.4343
2147,-0.0003564,-0.4343
2148,-0.000356398,-0.4343
2149,-0.000356396,-0.4343
2150,-0.000356394,-0.4343
2151,-0.000356392,-0.4343
2152,-0.00035639,-0.4343
2153,-0.000356388,-0.4343
2154,-0.000356386,-0.4343
2155,-0.000356384,-0.4343
2156,-0.000356382,-0.4343
2157,-0.00035638,-0.4141
2158,-0.000356378,-0.4141
2159,-0.000356376,-0.4343
2160,-0.000356374,-0.4343
2161,-0.000356372,-0.4343
2162,-0.00035637,-0.4343
2163,-0.000356368,-0.4343
2164,-0.000356366,-0.4343
2165,-0.000356364,-0.4343
2166,-0.000356362,-0.4343
2167,-0.00035636,-0.4343
2168,-0.000356358,-0.4343
2169,-0.000356356,-0.4343
2170,-0.000356354,-0.4343
2171,-0.000356352,-0.4343
2172,-0.00035635,-0.4343
2173,-0.000356348,-0.4343
2174,-0.000356346,-0.4343
2175,-0.000356344,-0.4343
2176,-0.000356342,-0.4343
2177,-0.00035634,-0.4343
2178,-0.000356338,-0.4343
2179,-0.000356336,-0.4343
2180,-0.000356334,-0.4343
2181,-0.000356332,-0.4141
2182,-0.00035633,-0.4141
2183,-0.000356328,-0.4141
2184,-0.000356326,-0.4343
2185,-0.000356324,-0.4343
2186,-0.000356322,-0.4343
2187,-0.00035632,-0.4343
2188,-0.000356318,-0.4343
2189,-0.000356316,-0.4343
2190,-0.000356314,-0.4343
2191,-0.000356312,-0.4343
2192,-0.00035631,-0.4343
2193,-0.000356308,-0.4343
2194,-0.000356306,-0.4343
2195,-0.000356304,-0.4141
2196,-0.000356302,-0.4141
2197,-0.0003563,-0.4141
2198,-0.000356298,-0.4141
2199,-0.000356296,-0.4141
2200,-0.000356294,-0.4141
2201,-0.000356292,-0.4343
2202,-0.00035629,-0.4343
2203,-0.000356288,-0.4343
2204,-0.000356286,-0.4343
2205,-0.000356284,-0.4343
2206,-0.000356282,-0.4343
2207,-0.00035628,-0.4343
2208,-0.000356278,-0.4343
2209,-0.000356276,-0.4343
2210,-0.000356274,-0.4343
2211,-0.000356272,-0.4141
2212,-0.00035627,-0.4141
2213,-0.000356268,-0.4343
2214,-0.000356266,-0.4343
2215,-0.000356264,-0.4343
2216,-0.000356262,-0.4343
2217,-0.00035626,-0.4343
2218,-0.000356258,-0.4141
2219,-0.000356256,-0.4141
2220,-0.000356254,-0.4141
2221,-0.000356252,-0.4343
2222,-0.00035625,-0.4141
2223,-0.000356248,-0.4343
2224,-0.000356246,-0.4141
2225,-0.000356244,-0.4141
2226,-0.000356242,-0.4343
2227,-0.00035624,-0.4343
2228,-0.000356238,-0.4343
2229,-0.000356236,-0.4343
2230,-0.000356234,-0.4343
2231,-0.000356232,-0.4343
2232,-0.00035623,-0.4141
2233,-0.000356228,-0.4343
2234,-0.000356226,-0.4343
2235,-0.000356224,-0.4343
2236,-0.000356222,-0.4343
2237,-0.00035622,-0.4343
2238,-0.000356218,-0.4343
2239,-0.000356216,-0.4343
2240,-0.000356214,-0.4343
2241,-0.000356212,-0.4343
2242,-0.00035621,-0.4343
2243,-0.000356208,-0.4343
2244,-0.000356206,-0.4343
2245,-0.000356204,-0.4141
2246,-0.000356202,-0.4141
2247,-0.0003562,-0.4141
2248,-0.000356198,-0.4141
2249,-0.000356196,-0.4343
2250,-0.000356194,-0.4141
2251,-0.000356192,-0.4141
2252,-0.00035619,-0.4141
2253,-0.000356188,-0.4141
2254,-0.000356186,-0.4343
2255,-0.000356184,-0.4141
2256,-0.000356182,-0.4343
2257,-0.00035618,-0.4343
2258,-0.000356178,-0.4343
2259,-0.000356176,-0.4343
2260,-0.000356174,-0.4343
2261,-0.000356172,-0.4343
2262,-0.00035617,-0.4343
2263,-0.000356168,-0.4343
2264,-0.000356166,-0.4343
2265,-0.000356164,-0.4141
2266,-0.000356162,-0.4141
2267,-0.00035616,-0.4141
2268,-0.000356158,-0.4141
2269,-0.000356156,-0.4343
2270,-0.000356154,-0.4343
2271,-0.000356152,-0.4141
2272,-0.00035615,-0.4343
2273,-0.000356148,-0.4343
2274,-0.000356146,-0.4343
2275,-0.000356144,-0.4343
2276,-0.000356142,-0.4343
2277,-0.00035614,-0.4343
2278,-0.000356138,-0.4141
2279,-0.000356136,-0.4343
2280,-0.000356134,-0.4343
2281,-0.000356132,-0.4343
2282,-0.00035613,-0.4343
2283,-0.000356128,-0.4343
2284,-0.000356126,-0.4343
2285,-0.000356124,-0.4343
2286,-0.000356122,-0.4343
2287,-0.00035612,-0.4343
2288,-0.000356118,-0.4141
2289,-0.000356116,-0.4141
2290,-0.000356114,-0.4141
2291,-0.000356112,-0.4141
2292,-0.00035611,-0.4343
2293,-0.000356108,-0.4343
2294,-0.000356106,-0.4343
2295,-0.000356104,-0.4343
2296,-0.000356102,-0.4343
2297,-0.0003561,-0.4343
2298,-0.000356098,-0.4343
2299,-0.000356096,-0.4343
2300,-0.000356094,-0.4141
2301,-0.000356092,-0.4141
2302,-0.00035609,-0.4141
2303,-0.000356088,-0.4343
2304,-0.000356086,-0.4343
2305,-0.000356084,-0.4141
2306,-0.000356082,-0.4141
2307,-0.00035608,-0.4343
2308,-0.000356078,-0.4343
2309,-0.000356076,-0.4343
2310,-0.000356074,-0.4343
2311,-0.000356072,-0.4343
2312,-0.00035607,-0.4343
2313,-0.000356068,-0.4141
2314,-0.000356066,-0.4343
2315,-0.000356064,-0.4343
2316,-0.000356062,-0.4343
2317,-0.00035606,-0.4343
2318,-0.000356058,-0.4343
2319,-0.000356056,-0.4343
2320,-0.000356054,-0.4343
2321,-0.000356052,-0.4343
2322,-0.00035605,-0.4343
2323,-0.000356048,-0.4343
2324,-0.000356046,-0.4343
2325,-0.000356044,-0.4343
2326,-0.000356042,-0.4141
2327,-0.00035604,-0.4141
2328,-0.000356038,-0.4343
2329,-0.000356036,-0.4343
2330,-0.000356034,-0.4343
2331,-0.000356032,-0.4343
2332,-0.00035603,-0.4343
2333,-0.000356028,-0.4343
2334,-0.000356026,-0.4343
2335,-0.000356024,-0.4343
2336,-0.000356022,-0.4343
2337,-0.00035602,-0.4343
2338,-0.000356018,-0.4343
2339,-0.000356016,-0.4343
2340,-0.000356014,-0.4343
2341,-0.000356012,-0.4343
2342,-0.00035601,-0.4343
2343,-0.000356008,-0.4343
2344,-0.000356006,-0.4343
2345,-0.000356004,-0.4343
2346,-0.000356002,-0.4343
2347,-0.000356,-0.4343
2348,-0.000355998,-0.4343
2349,-0.000355996,-0.4343
2350,-0.000355994,-0.4343
2351,-0.000355992,-0.4343
2352,-0.00035599,-0.4343
2353,-0.000355988,-0.4343
2354,-0.000355986,-0.4343
2355,-0.000355984,-0.4343
2356,-0.000355982,-0.4343
2357,-0.00035598,-0.4343
2358,-0.000355978,-0.4343
2359,-0.000355976,-0.4343
2360,-0.000355974,-0.4343
2361,-0.000355972,-0.4343
2362,-0.00035597,-0.4343
2363,-0.000355968,-0.4343
2364,-0.000355966,-0.4343
2365,-0.000355964,-0.4343
2366,-0.000355962,-0.4343
2367,-0.00035596,-0.4343
2368,-0.000355958,-0.4343
2369,-0.000355956,-0.4343
2370,-0.000355954,-0.4343
2371,-0.000355952,-0.4343
2372,-0.00035595,-0.4141
2373,-0.000355948,-0.4343
2374,-0.000355946,-0.4343
2375,-0.000355944,-0.4343
2376,-0.000355942,-0.4141
2377,-0.00035594,-0.4343
2378,-0.000355938,-0.4343
2379,-0.000355936,-0.4343
2380,-0.000355934,-0.4343
2381,-0.000355932,-0.4343
2382,-0.00035593,-0.4343
2383,-0.000355928,-0.4343
2384,-0.000355926,-0.4343
2385,-0.000355924,-0.4343
2386,-0.000355922,-0.4141
2387,-0.00035592,-0.4141
2388,-0.000355918,-0.4141
2389,-0.000355916,-0.4343
2390,-0.000355914,-0.4343
2391,-0.000355912,-0.4343
2392,-0.00035591,-0.4343
2393,-0.000355908,-0.4343
2394,-0.000355906,-0.4343
2395,-0.000355904,-0.4343
2396,-0.000355902,-0.4343
2397,-0.0003559,-0.4343
2398,-0.000355898,-0.4343
2399,-0.000355896,-0.4141
2400,-0.000355894,-0.4343
2401,-0.000355892,-0.4141
2402,-0.00035589,-0.4343
2403,-0.000355888,-0.4343
2404,-0.000355886,-0.4343
2405,-0.000355884,-0.4343
2406,-0.000355882,-0.4343
2407,-0.00035588,-0.4343
2408,-0.000355878,-0.4141
2409,-0.000355876,-0.4343
2410,-0.000355874,-0.4343
2411,-0.000355872,-0.4343
2412,-0.00035587,-0.4343
2413,-0.000355868,-0.4343
2414,-0.000355866,-0.4141
2415,-0.000355864,-0.4343
2416,-0.000355862,-0.4343
2417,-0.00035586,-0.4343
2418,-0.000355858,-0.4141
2419,-0.000355856,-0.4343
2420,-0.000355854,-0.4343
2421,-0.000355852,-0.4343
2422,-0.00035585,-0.4343
2423,-0.000355848,-0.4343
2424,-0.000355846,-0.4343
2425,-0.000355844,-0.4343
2426,-0.000355842,-0.4343
2427,-0.00035584,-0.4343
2428,-0.000355838,-0.4343
2429,-0.000355836,-0.4141
2430,-0.000355834,-0.4141
2431,-0.000355832,-0.4343
2432,-0.00035583,-0.4343
2433,-0.000355828,-0.4343
2434,-0.000355826,-0.4343
2435,-0.000355824,-0.4343
2436,-0.000355822,-0.4343
2437,-0.00035582,-0.4343
2438,-0.000355818,-0.4343
2439,-0.000355816,-0.4141
2440,-0.000355814,-0.4141
2441,-0.000355812,-0.4141
2442,-0.00035581,-0.4343
2443,-0.000355808,-0.4343
2444,-0.000355806,-0.4343
2445,-0.000355804,-0.4343
2446,-0.000355802,-0.4343
2447,-0.0003558,-0.4343
2448,-0.000355798,-0.4343
2449,-0.000355796,-0.4141
2450,-0.000355794,-0.4343
2451,-0.000355792,-0.4343
2452,-0.00035579,-0.4343
2453,-0.000355788,-0.4343
2454,-0.000355786,-0.4343
2455,-0.000355784,-0.4343
2456,-0.000355782,-0.4343
2457,-0.00035578,-0.4343
2458,-0.000355778,-0.4343
2459,-0.000355776,-0.4343
2460,-0.000355774,-0.4343
2461,-0.000355772,-0.4343
2462,-0.00035577,-0.4141
2463,-0.000355768,-0.4141
2464,-0.000355766,-0.4343
2465,-0.000355764,-0.4343
2466,-0.000355762,-0.4343
2467,-0.00035576,-0.4343
2468,-0.000355758,-0.4343
2469,-0.000355756,-0.4343
2470,-0.000355754,-0.4343
2471,-0.000355752,-0.4343
2472,-0.00035575,-0.4343
2473,-0.000355748,-0.4141
2474,-0.000355746,-0.4343
2475,-0.000355744,-0.4343
2476,-0.000355742,-0.4343
2477,-0.00035574,-0.4141
2478,-0.000355738,-0.4141
2479,-0.000355736,-0.4343
2480,-0.000355734,-0.4343
2481,-0.000355732,-0.4343
2482,-0.00035573,-0.4343
2483,-0.000355728,-0.4343
2484,-0.000355726,-0.4343
2485,-0.000355724,-0.4343
2486,-0.000355722,-0.4343
2487,-0.00035572,-0.4343
2488,-0.000355718,-0.4343
2489,-0.000355716,-0.4343
2490,-0.000355714,-0.4343
2491,-0.000355712,-0.4343
2492,-0.00035571,-0.4343
2493,-0.000355708,-0.4343
2494,-0.000355706,-0.4343
2495,-0.000355704,-0.4343
2496,-0.000355702,-0.4343
2497,-0.0003557,-0.4343
2498,-0.000355698,-0.4141
2499,-0.000355696,-0.4141
2500,-0.000355694,-0.4141
2501,-0.000355692,-0.4343
2502,-0.00035569,-0.4343
2503,-0.000355688,-0.4343
2504,-0.000355686,-0.4343
2505,-0.000355684,-0.4343
2506,-0.000355682,-0.4343
2507,-0.00035568,-0.4343
2508,-0.000355678,-0.4343
2509,-0.000355676,-0.4343
2510,-0.000355674,-0.4343
2511,-0.000355672,-0.4343
2512,-0.00035567,-0.4343
2513,-0.000355668,-0.4343
2514,-0.000355666,-0.4343
2515,-0.000355664,-0.4343
2516,-0.000355662,-0.4343
2517,-0.00035566,-0.4343
2518,-0.000355658,-0.4141
2519,-0.000355656,-0.4343
2520,-0.000355654,-0.4343
2521,-0.000355652,-0.4343
2522,-0.00035565,-0.4343
2523,-0.000355648,-0.4343
2524,-0.000355646,-0.4343
2525,-0.000355644,-0.4343
2526,-0.000355642,-0.4141
2527,-0.00035564,-0.4141
2528,-0.000355638,-0.4141
2529,-0.000355636,-0.4141
2530,-0.000355634,-0.4141
2531,-0.000355632,-0.4343
2532,-0.00035563,-0.4141
2533,-0.000355628,-0.4141
2534,-0.000355626,-0.4343
2535,-0.000355624,-0.4343
2536,-0.000355622,-0.4343
2537,-0.00035562,-0.4343
2538,-0.000355618,-0.4141
2539,-0.000355616,-0.4343
2540,-0.000355614,-0.4343
2541,-0.000355612,-0.4343
2542,-0.00035561,-0.4343
2543,-0.000355608,-0.4343
2544,-0.000355606,-0.4343
2545,-0.000355604,-0.4141
2546,-0.000355602,-0.4141
2547,-0.0003556,-0.4343
2548,-0.000355598,-0.4343
2549,-0.000355596,-0.4343
2550,-0.000355594,-0.4343
2551,-0.000355592,-0.4343
2552,-0.00035559,-0.4343
2553,-0.000355588,-0.4343
2554,-0.000355586,-0.4343
2555,-0.000355584,-0.4343
2556,-0.000355582,-0.4343
2557,-0.00035558,-0.4141
2558,-0.000355578,-0.4141
2559,-0.000355576,-0.4343
2560,-0.000355574,-0.4343
2561,-0.000355572,-0.4343
2562,-0.00035557,-0.4343
2563,-0.000355568,-0.4141
2564,-0.000355566,-0.4343
2565,-0.000355564,-0.4343
2566,-0.000355562,-0.4141
2567,-0.00035556,-0.4141
2568,-0.000355558,-0.4343
2569,-0.000355556,-0.4343
2570,-0.000355554,-0.4343
2571,-0.000355552,-0.4343
2572,-0.00035555,-0.4343
2573,-0.000355548,-0.4343
2574,-0.000355546,-0.4343
2575,-0.000355544,-0.4141
2576,-0.000355542,-0.4141
2577,-0.00035554,-0.4141
2578,-0.000355538,-0.4343
2579,-0.000355536,-0.4343
2580,-0.000355534,-0.4343
2581,-0.000355532,-0.4343
2582,-0.00035553,-0.4343
2583,-0.000355528,-0.4343
2584,-0.000355526,-0.4343
2585,-0.000355524,-0.4343
2586,-0.000355522,-0.4343
2587,-0.00035552,-0.4343
2588,-0.000355518,-0.4343
2589,-0.000355516,-0.4343
2590,-0.000355514,-0.4343
2591,-0.000355512,-0.4343
2592,-0.00035551,-0.4343
2593,-0.000355508,-0.4343
2594,-0.000355506,-0.4343
2595,-0.000355504,-0.4343
2596,-0.000355502,-0.4343
2597,-0.0003555,-0.4343
2598,-0.000355498,-0.4343
2599,-0.000355496,-0.4343
2600,-0.000355494,-0.4141
2601,-0.000355492,-0.4141
2602,-0.00035549,-0.4141
2603,-0.000355488,-0.4343
2604,-0.000355486,-0.4343
2605,-0.000355484,-0.4343
2606,-0.000355482,-0.4343
2607,-0.00035548,-0.4343
2608,-0.000355478,-0.4343
2609,-0.000355476,-0.4141
2610,-0.000355474,-0.4141
2611,-0.000355472,-0.4343
2612,-0.00035547,-0.4343
2613,-0.000355468,-0.4343
2614,-0.000355466,-0.4343
2615,-0.000355464,-0.4343
2616,-0.000355462,-0.4343
2617,-0.00035546,-0.4343
2618,-0.000355458,-0.4343
2619,-0.000355456,-0.4343
2620,-0.000355454,-0.4343
2621,-0.000355452,-0.4343
2622,-0.00035545,-0.4343
2623,-0.000355448,-0.4343
2624,-0.000355446,-0.4343
2625,-0.000355444,-0.4343
2626,-0.000355442,-0.4343
2627,-0.00035544,-0.4343
2628,-0.000355438,-0.4343
2629,-0.000355436,-0.4343
2630,-0.000355434,-0.4343
2631,-0.000355432,-0.4343
2632,-0.00035543,-0.4343
2633,-0.000355428,-0.4141
2634,-0.000355426,-0.4343
2635,-0.000355424,-0.4343
2636,-0.000355422,-0.4343
2637,-0.00035542,-0.4343
2638,-0.000355418,-0.4141
2639,-0.000355416,-0.4343
2640,-0.000355414,-0.4343
2641,-0.000355412,-0.4343
2642,-0.00035541,-0.4343
2643,-0.000355408,-0.4343
2644,-0.000355406,-0.4343
2645,-0.000355404,-0.4343
2646,-0.000355402,-0.4343
2647,-0.0003554,-0.4343
2648,-0.000355398,-0.4141
2649,-0.000355396,-0.4343
2650,-0.000355394,-0.4343
2651,-0.000355392,-0.4343
2652,-0.00035539,-0.4343
2653,-0.000355388,-0.4343
2654,-0.000355386,-0.4343
2655,-0.000355384,-0.4343
2656,-0.000355382,-0.4343
2657,-0.00035538,-0.4343
2658,-0.000355378,-0.4343
2659,-0.000355376,-0.4343
2660,-0.000355374,-0.4343
2661,-0.000355372,-0.4141
2662,-0.00035537,-0.4343
2663,-0.000355368,-0.4343
2664,-0.000355366,-0.4343
2665,-0.000355364,-0.4343
2666,-0.000355362,-0.4343
2667,-0.00035536,-0.4141
2668,-0.000355358,-0.4343
2669,-0.000355356,-0.4343
2670,-0.000355354,-0.4343
2671,-0.000355352,-0.4343
2672,-0.00035535,-0.4343
2673,-0.000355348,-0.4141
2674,-0.000355346,-0.4141
2675,-0.000355344,-0.4141
2676,-0.000355342,-0.4343
2677,-0.00035534,-0.4343
2678,-0.000355338,-0.4141
2679,-0.000355336,-0.4343
2680,-0.000355334,-0.4343
2681,-0.000355332,-0.4343
2682,-0.00035533,-0.4343
2683,-0.000355328,-0.4343
2684,-0.000355326,-0.4343
2685,-0.000355324,-0.4343
2686,-0.000355322,-0.4343
2687,-0.00035532,-0.4343
2688,-0.000355318,-0.4141
2689,-0.000355316,-0.4343
2690,-0.000355314,-0.4343
2691,-0.000355312,-0.4343
2692,-0.00035531,-0.4343
2693,-0.000355308,-0.4343
2694,-0.000355306,-0.4343
2695,-0.000355304,-0.4343
2696,-0.000355302,-0.4343
2697,-0.0003553,-0.4343
2698,-0.000355298,-0.4343
2699,-0.000355296,-0.4343
2700,-0.000355294,-0.4343
2701,-0.000355292,-0.4343
2702,-0.00035529,-0.4343
2703,-0.000355288,-0.4141
2704,-0.000355286,-0.4343
2705,-0.000355284,-0.4343
2706,-0.000355282,-0.4343
2707,-0.00035528,-0.4141
2708,-0.000355278,-0.4141
2709,-0.000355276,-0.4343
2710,-0.000355274,-0.4343
2711,-0.000355272,-0.4343
2712,-0.00035527,-0.4141
2713,-0.000355268,-0.4141
2714,-0.000355266,-0.4141
2715,-0.000355264,-0.4141
2716,-0.000355262,-0.4141
2717,-0.00035526,-0.4343
2718,-0.000355258,-0.4141
2719,-0.000355256,-0.4343
2720,-0.000355254,-0.4343
2721,-0.000355252,-0.4343
2722,-0.00035525,-0.4343
2723,-0.000355248,-0.4141
2724,-0.000355246,-0.4141
2725,-0.000355244,-0.4343
2726,-0.000355242,-0.4343
2727,-0.00035524,-0.4141
2728,-0.000355238,-0.4141
2729,-0.000355236,-0.4343
2730,-0.000355234,-0.4343
2731,-0.000355232,-0.4343
2732,-0.00035523,-0.4343
2733,-0.000355228,-0.4343
2734,-0.000355226,-0.4343
2735,-0.000355224,-0.4343
2736,-0.000355222,-0.4343
2737,-0.00035522,-0.4343
2738,-0.000355218,-0.4343
2739,-0.000355216,-0.4343
2740,-0.000355214,-0.4343
2741,-0.000355212,-0.4141
2742,-0.00035521,-0.4141
2743,-0.000355208,-0.4343
2744,-0.000355206,-0.4141
2745,-0.000355204,-0.4343
2746,-0.000355202,-0.4141
2747,-0.0003552,-0.4141
2748,-0.000355198,-0.4343
2749,-0.000355196,-0.4343
2750,-0.000355194,-0.4343
2751,-0.000355192,-0.4343
2752,-0.00035519,-0.4343
2753,-0.000355188,-0.4141
2754,-0.000355186,-0.4343
2755,-0.000355184,-0.4141
2756,-0.000355182,-0.4343
2757,-0.00035518,-0.4343
2758,-0.000355178,-0.4343
2759,-0.000355176,-0.4343
2760,-0.000355174,-0.4343
2761,-0.000355172,-0.4343
2762,-0.00035517,-0.4343
2763,-0.000355168,-0.4343
2764,-0.000355166,-0.4343
2765,-0.000355164,-0.4343
2766,-0.000355162,-0.4343
2767,-0.00035516,-0.4343
2768,-0.000355158,-0.4343
2769,-0.000355156,-0.4343
2770,-0.000355154,-0.4343
2771,-0.000355152,-0.4141
2772,-0.00035515,-0.4343
2773,-0.000355148,-0.4343
2774,-0.000355146,-0.4343
2775,-0.000355144,-0.4343
2776,-0.000355142,-0.4343
2777,-0.00035514,-0.4343
2778,-0.000355138,-0.4343
2779,-0.000355136,-0.4343
2780,-0.000355134,-0.4141
2781,-0.000355132,-0.4141
2782,-0.00035513,-0.4343
2783,-0.000355128,-0.4343
2784,-0.000355126,-0.4343
2785,-0.000355124,-0.4343
2786,-0.000355122,-0.4343
2787,-0.00035512,-0.4141
2788,-0.000355118,-0.4343
2789,-0.000355116,-0.4141
2790,-0.000355114,-0.4141
2791,-0.000355112,-0.4343
2792,-0.00035511,-0.4141
2793,-0.000355108,-0.4141
2794,-0.000355106,-0.4343
2795,-0.000355104,-0.4343
2796,-0.000355102,-0.4343
2797,-0.0003551,-0.4343
2798,-0.000355098,-0.4141
2799,-0.000355096,-0.4343
2800,-0.000355094,-0.4141
2801,-0.000355092,-0.4141
2802,-0.00035509,-0.4343
2803,-0.000355088,-0.4343
2804,-0.000355086,-0.4343
2805,-0.000355084,-0.4141
2806,-0.000355082,-0.4343
2807,-0.00035508,-0.4343
2808,-0.000355078,-0.4343
2809,-0.000355076,-0.4343
2810,-0.000355074,-0.4343
2811,-0.000355072,-0.4343
2812,-0.00035507,-0.4141
2813,-0.000355068,-0.4141
2814,-0.000355066,-0.4141
2815,-0.000355064,-0.4141
2816,-0.000355062,-0.4141
2817,-0.00035506,-0.4141
2818,-0.000355058,-0.4343
2819,-0.000355056,-0.4343
2820,-0.000355054,-0.4343
2821,-0.000355052,-0.4343
2822,-0.00035505,-0.4343
2823,-0.000355048,-0.4343
2824,-0.000355046,-0.4343
2825,-0.000355044,-0.4343
2826,-0.000355042,-0.4343
2827,-0.00035504,-0.4343
2828,-0.000355038,-0.4343
2829,-0.000355036,-0.4141
2830,-0.000355034,-0.4343
2831,-0.000355032,-0.4343
2832,-0.00035503,-0.4343
2833,-0.000355028,-0.4343
2834,-0.000355026,-0.4343
2835,-0.000355024,-0.4343
2836,-0.000355022,-0.4343
2837,-0.00035502,-0.4343
2838,-0.000355018,-0.4343
2839,-0.000355016,-0.4141
2840,-0.000355014,-0.4343
2841,-0.000355012,-0.4141
2842,-0.00035501,-0.4343
2843,-0.000355008,-0.4343
2844,-0.000355006,-0.4343
2845,-0.000355004,-0.4343
2846,-0.000355002,-0.4343
2847,-0.000355,-0.4343
2848,-0.000354998,-0.4343
2849,-0.000354996,-0.4141
2850,-0.000354994,-0.4343
2851,-0.000354992,-0.4343
2852,-0.00035499,-0.4343
2853,-0.000354988,-0.4343
2854,-0.000354986,-0.4343
2855,-0.000354984,-0.4343
2856,-0.000354982,-0.4343
2857,-0.00035498,-0.4343
2858,-0.000354978,-0.4343
2859,-0.000354976,-0.4343
2860,-0.000354974,-0.4141
2861,-0.000354972,-0.4141
2862,-0.00035497,-0.4141
2863,-0.000354968,-0.4343
2864,-0.000354966,-0.4141
2865,-0.000354964,-0.4141
2866,-0.000354962,-0.4343
2867,-0.00035496,-0.4343
2868,-0.000354958,-0.4343
2869,-0.000354956,-0.4343
2870,-0.000354954,-0.4343
2871,-0.000354952,-0.4343
2872,-0.00035495,-0.4343
2873,-0.000354948,-0.4141
2874,-0.000354946,-0.4343
2875,-0.000354944,-0.4343
2876,-0.000354942,-0.4343
2877,-0.00035494,-0.4343
2878,-0.000354938,-0.4343
2879,-0.000354936,-0.4141
2880,-0.000354934,-0.4343
2881,-0.000354932,-0.4343
2882,-0.00035493,-0.4343
2883,-0.000354928,-0.4343
2884,-0.000354926,-0.4343
2885,-0.000354924,-0.4141
2886,-0.000354922,-0.4343
2887,-0.00035492,-0.4343
2888,-0.000354918,-0.4343
2889,-0.000354916,-0.4343
2890,-0.000354914,-0.4343
2891,-0.000354912,-0.4343
2892,-0.00035491,-0.4141
2893,-0.000354908,-0.4141
2894,-0.000354906,-0.4343
2895,-0.000354904,-0.4343
2896,-0.000354902,-0.4343
2897,-0.0003549,-0.4343
2898,-0.000354898,-0.4343
2899,-0.000354896,-0.4343
2900,-0.000354894,-0.4343
2901,-0.000354892,-0.4343
2902,-0.00035489,-0.4343
2903,-0.000354888,-0.4343
2904,-0.000354886,-0.4343
2905,-0.000354884,-0.4343
2906,-0.000354882,-0.4343
2907,-0.00035488,-0.4343
2908,-0.000354878,-0.4141
2909,-0.000354876,-0.4343
2910,-0.000354874,-0.4343
2911,-0.000354872,-0.4343
2912,-0.00035487,-0.4343
2913,-0.000354868,-0.4141
2914,-0.000354866,-0.4141
2915,-0.000354864,-0.4141
2916,-0.000354862,-0.4343
2917,-0.00035486,-0.4343
2918,-0.000354858,-0.4343
2919,-0.000354856,-0.4343
2920,-0.000354854,-0.4343
2921,-0.000354852,-0.4343
2922,-0.00035485,-0.4343
2923,-0.000354848,-0.4141
2924,-0.000354846,-0.4141
2925,-0.000354844,-0.4141
2926,-0.000354842,-0.4141
2927,-0.00035484,-0.4343
2928,-0.000354838,-0.4343
2929,-0.000354836,-0.4141
2930,-0.000354834,-0.4343
2931,-0.000354832,-0.4141
2932,-0.00035483,-0.4141
2933,-0.000354828,-0.4141
2934,-0.000354826,-0.4141
2935,-0.000354824,-0.4343
2936,-0.000354822,-0.4343
2937,-0.00035482,-0.4343
2938,-0.000354818,-0.4141
2939,-0.000354816,-0.4141
2940,-0.000354814,-0.4141
2941,-0.000354812,-0.4141
2942,-0.00035481,-0.4141
2943,-0.000354808,-0.4141
2944,-0.000354806,-0.4343
2945,-0.000354804,-0.4141
2946,-0.000354802,-0.4141
2947,-0.0003548,-0.4343
2948,-0.000354798,-0.4343
2949,-0.000354796,-0.4141
2950,-0.000354794,-0.4141
2951,-0.000354792,-0.4343
2952,-0.00035479,-0.4141
2953,-0.000354788,-0.4141
2954,-0.000354786,-0.4343
2955,-0.000354784,-0.4343
2956,-0.000354782,-0.4343
2957,-0.00035478,-0.4343
2958,-0.000354778,-0.4343
2959,-0.000354776,-0.4343
2960,-0.000354774,-0.4343
2961,-0.000354772,-0.4343
2962,-0.00035477,-0.4343
2963,-0.000354768,-0.4141
2964,-0.000354766,-0.4141
2965,-0.000354764,-0.4141
2966,-0.000354762,-0.4141
2967,-0.00035476,-0.4343
2968,-0.000354758,-0.4343
2969,-0.000354756,-0.4343
2970,-0.000354754,-0.4343
2971,-0.000354752,-0.4343
2972,-0.00035475,-0.4343
2973,-0.000354748,-0.4343
2974,-0.000354746,-0.4343
2975,-0.000354744,-0.4343
2976,-0.000354742,-0.4343
2977,-0.00035474,-0.4343
2978,-0.000354738,-0.4141
2979,-0.000354736,-0.4343
2980,-0.000354734,-0.4343
2981,-0.000354732,-0.4343
2982,-0.00035473,-0.4343
2983,-0.000354728,-0.4343
2984,-0.000354726,-0.4343
2985,-0.000354724,-0.4141
2986,-0.000354722,-0.4343
2987,-0.00035472,-0.4343
2988,-0.000354718,-0.4343
2989,-0.000354716,-0.4343
2990,-0.000354714,-0.4343
2991,-0.000354712,-0.4343
2992,-0.00035471,-0.4343
2993,-0.000354708,-0.4343
2994,-0.000354706,-0.4343
2995,-0.000354704,-0.4343
2996,-0.000354702,-0.4343
2997,-0.0003547,-0.4343
2998,-0.000354698,-0.4343
2999,-0.000354696,-0.4343
3000,-0.000354694,-0.4343
3001,-0.000354692,-0.4343
3002,-0.00035469,-0.4343
3003,-0.000354688,-0.4343
3004,-0.000354686,-0.4343
3005,-0.000354684,-0.4343
3006,-0.000354682,-0.4343
3007,-0.00035468,-0.4343
3008,-0.000354678,-0.4343
3009,-0.000354676,-0.4343
3010,-0.000354674,-0.4343
3011,-0.000354672,-0.4343
3012,-0.00035467,-0.4343
3013,-0.000354668,-0.4343
3014,-0.000354666,-0.4343
3015,-0.000354664,-0.4343
3016,-0.000354662,-0.4343
3017,-0.00035466,-0.4343
3018,-0.000354658,-0.4343
3019,-0.000354656,-0.4141
3020,-0.000354654,-0.4141
3021,-0.000354652,-0.4141
3022,-0.00035465,-0.4141
3023,-0.000354648,-0.4343
3024,-0.000354646,-0.4343
3025,-0.000354644,-0.4343
3026,-0.000354642,-0.4343
3027,-0.00035464,-0.4343
3028,-0.000354638,-0.4343
3029,-0.000354636,-0.4343
3030,-0.000354634,-0.4343
3031,-0.000354632,-0.4343
3032,-0.00035463,-0.4141
3033,-0.000354628,-0.4141
3034,-0.000354626,-0.4343
3035,-0.000354624,-0.4343
3036,-0.000354622,-0.4343
3037,-0.00035462,-0.4141
3038,-0.000354618,-0.4343
3039,-0.000354616,-0.4343
3040,-0.000354614,-0.4141
3041,-0.000354612,-0.4141
3042,-0.00035461,-0.4343
3043,-0.000354608,-0.4343
3044,-0.000354606,-0.4343
3045,-0.000354604,-0.4343
3046,-0.000354602,-0.4343
3047,-0.0003546,-0.4343
3048,-0.000354598,-0.4343
3049,-0.000354596,-0.4343
3050,-0.000354594,-0.4141
3051,-0.000354592,-0.4141
3052,-0.00035459,-0.4141
3053,-0.000354588,-0.4343
3054,-0.000354586,-0.4141
3055,-0.000354584,-0.4141
3056,-0.000354582,-0.4343
3057,-0.00035458,-0.4343
3058,-0.000354578,-0.4343
3059,-0.000354576,-0.4343
3060,-0.000354574,-0.4343
3061,-0.000354572,-0.4343
3062,-0.00035457,-0.4343
3063,-0.000354568,-0.4343
3064,-0.000354566,-0.4343
3065,-0.000354564,-0.4343
3066,-0.000354562,-0.4343
3067,-0.00035456,-0.4141
3068,-0.000354558,-0.4343
3069,-0.000354556,-0.4141
3070,-0.000354554,-0.4141
3071,-0.000354552,-0.4141
3072,-0.00035455,-0.4343
3073,-0.000354548,-0.4141
3074,-0.000354546,-0.4343
3075,-0.000354544,-0.4343
3076,-0.000354542,-0.4343
3077,-0.00035454,-0.4141
3078,-0.000354538,-0.4343
3079,-0.000354536,-0.4343
3080,-0.000354534,-0.4343
3081,-0.000354532,-0.4343
3082,-0.00035453,-0.4343
3083,-0.000354528,-0.4343
3084,-0.000354526,-0.4343
3085,-0.000354524,-0.4343
3086,-0.000354522,-0.4343
3087,-0.00035452,-0.4343
3088,-0.000354518,-0.4343
3089,-0.000354516,-0.4343
3090,-0.000354514,-0.4343
3091,-0.000354512,-0.4343
3092,-0.00035451,-0.4343
3093,-0.000354508,-0.4343
3094,-0.000354506,-0.4343
3095,-0.000354504,-0.4343
3096,-0.000354502,-0.4343
3097,-0.0003545,-0.4343
3098,-0.000354498,-0.4343
3099,-0.000354496,-0.4343
3100,-0.000354494,-0.4343
3101,-0.000354492,-0.4343
3102,-0.00035449,-0.4343
3103,-0.000354488,-0.4343
3104,-0.000354486,-0.4343
3105,-0.000354484,-0.4343
3106,-0.000354482,-0.4343
3107,-0.00035448,-0.4343
3108,-0.000354478,-0.4343
3109,-0.000354476,-0.4141
3110,-0.000354474,-0.4343
3111,-0.000354472,-0.4343
3112,-0.00035447,-0.4343
3113,-0.000354468,-0.4343
3114,-0.000354466,-0.4343
3115,-0.000354464,-0.4343
3116,-0.000354462,-0.4343
3117,-0.00035446,-0.4343
3118,-0.000354458,-0.4343
3119,-0.000354456,-0.4343
3120,-0.000354454,-0.4343
3121,-0.000354452,-0.4343
3122,-0.00035445,-0.4343
3123,-0.000354448,-0.4343
3124,-0.000354446,-0.4343
3125,-0.000354444,-0.4141
3126,-0.000354442,-0.4343
3127,-0.00035444,-0.4343
3128,-0.000354438,-0.4343
3129,-0.000354436,-0.4141
3130,-0.000354434,-0.4141
3131,-0.000354432,-0.4141
3132,-0.00035443,-0.4343
3133,-0.000354428,-0.4343
3134,-0.000354426,-0.4343
3135,-0.000354424,-0.4343
3136,-0.000354422,-0.4343
3137,-0.00035442,-0.4343
3138,-0.000354418,-0.4343
3139,-0.000354416,-0.4141
3140,-0.000354414,-0.4343
3141,-0.000354412,-0.4343
3142,-0.00035441,-0.4343
3143,-0.000354408,-0.4343
3144,-0.000354406,-0.4343
3145,-0.000354404,-0.4343
3146,-0.000354402,-0.4141
3147,-0.0003544,-0.4141
3148,-0.000354398,-0.4343
3149,-0.000354396,-0.4343
3150,-0.000354394,-0.4343
3151,-0.000354392,-0.4343
3152,-0.00035439,-0.4343
3153,-0.000354388,-0.4343
3154,-0.000354386,-0.4343
3155,-0.000354384,-0.4343
3156,-0.000354382,-0.4141
3157,-0.00035438,-0.4141
3158,-0.000354378,-0.4141
3159,-0.000354376,-0.4141
3160,-0.000354374,-0.4141
3161,-0.000354372,-0.4141
3162,-0.00035437,-0.4141
3163,-0.000354368,-0.4343
3164,-0.000354366,-0.4343
3165,-0.000354364,-0.4343
3166,-0.000354362,-0.4141
3167,-0.00035436,-0.4141
3168,-0.000354358,-0.4343
3169,-0.000354356,-0.4141
3170,-0.000354354,-0.4141
3171,-0.000354352,-0.4343
3172,-0.00035435,-0.4343
3173,-0.000354348,-0.4343
3174,-0.000354346,-0.4343
3175,-0.000354344,-0.4343
3176,-0.000354342,-0.4343
3177,-0.00035434,-0.4141
3178,-0.000354338,-0.4141
3179,-0.000354336,-0.4343
3180,-0.000354334,-0.4141
3181,-0.000354332,-0.4141
3182,-0.00035433,-0.4141
3183,-0.000354328,-0.4141
3184,-0.000354326,-0.4141
3185,-0.000354324,-0.4343
3186,-0.000354322,-0.4141
3187,-0.00035432,-0.4141
3188,-0.000354318,-0.4141
3189,-0.000354316,-0.4141
3190,-0.000354314,-0.4141
3191,-0.000354312,-0.4343
3192,-0.00035431,-0.4343
3193,-0.000354308,-0.4141
3194,-0.000354306,-0.4141
3195,-0.000354304,-0.4343
3196,-0.000354302,-0.4343
3197,-0.0003543,-0.4343
3198,-0.000354298,-0.4141
3199,-0.000354296,-0.4141
3200,-0.000354294,-0.4343
3201,-0.000354292,-0.4343
3202,-0.00035429,-0.4141
3203,-0.000354288,-0.4343
3204,-0.000354286,-0.4343
3205,-0.000354284,-0.4343
3206,-0.000354282,-0.4343
3207,-0.00035428,-0.4141
3208,-0.000354278,-0.4141
3209,-0.000354276,-0.4343
3210,-0.000354274,-0.4141
3211,-0.000354272,-0.4141
3212,-0.00035427,-0.4141
3213,-0.000354268,-0.4141
3214,-0.000354266,-0.4141
3215,-0.000354264,-0.4141
3216,-0.000354262,-0.4343
3217,-0.00035426,-0.4343
3218,-0.000354258,-0.4343
3219,-0.000354256,-0.4141
3220,-0.000354254,-0.4141
3221,-0.000354252,-0.4343
3222,-0.00035425,-0.4343
3223,-0.000354248,-0.4343
3224,-0.000354246,-0.4343
3225,-0.000354244,-0.4343
3226,-0.000354242,-0.4141
3227,-0.00035424,-0.4343
3228,-0.000354238,-0.4343
3229,-0.000354236,-0.4343
3230,-0.000354234,-0.4141
3231,-0.000354232,-0.4141
3232,-0.00035423,-0.4141
3233,-0.000354228,-0.4141
3234,-0.000354226,-0.4141
3235,-0.000354224,-0.4141
3236,-0.000354222,-0.4343
3237,-0.00035422,-0.4343
3238,-0.000354218,-0.4141
3239,-0.000354216,-0.4343
3240,-0.000354214,-0.4343
3241,-0.000354212,-0.4343
3242,-0.00035421,-0.4343
3243,-0.000354208,-0.4343
3244,-0.000354206,-0.4343
3245,-0.000354204,-0.4343
3246,-0.000354202,-0.4343
3247,-0.0003542,-0.4343
3248,-0.000354198,-0.4343
3249,-0.000354196,-0.4343
3250,-0.000354194,-0.4343
3251,-0.000354192,-0.4343
3252,-0.00035419,-0.4343
3253,-0.000354188,-0.4343
3254,-0.000354186,-0.4343
3255,-0.000354184,-0.4343
3256,-0.000354182,-0.4343
3257,-0.00035418,-0.4141
3258,-0.000354178,-0.4343
3259,-0.000354176,-0.4343
3260,-0.000354174,-0.4141
3261,-0.000354172,-0.4343
3262,-0.00035417,-0.4343
3263,-0.000354168,-0.4343
3264,-0.000354166,-0.4343
3265,-0.000354164,-0.4343
3266,-0.000354162,-0.4343
3267,-0.00035416,-0.4343
3268,-0.000354158,-0.4343
3269,-0.000354156,-0.4343
3270,-0.000354154,-0.4343
3271,-0.000354152,-0.4343
3272,-0.00035415,-0.4343
3273,-0.000354148,-0.4343
3274,-0.000354146,-0.4141
3275,-0.000354144,-0.4141
3276,-0.000354142,-0.4141
3277,-0.00035414,-0.4343
3278,-0.000354138,-0.4141
3279,-0.000354136,-0.4141
3280,-0.000354134,-0.4343
3281,-0.000354132,-0.4343
3282,-0.00035413,-0.4141
3283,-0.000354128,-0.4343
3284,-0.000354126,-0.4343
3285,-0.000354124,-0.4343
3286,-0.000354122,-0.4343
3287,-0.00035412,-0.4343
3288,-0.000354118,-0.4343
3289,-0.000354116,-0.4343
3290,-0.000354114,-0.4343
3291,-0.000354112,-0.4343
3292,-0.00035411,-0.4343
3293,-0.000354108,-0.4343
3294,-0.000354106,-0.4343
3295,-0.000354104,-0.4343
3296,-0.000354102,-0.4343
3297,-0.0003541,-0.4343
3298,-0.000354098,-0.4343
3299,-0.000354096,-0.4343
3300,-0.000354094,-0.4141
3301,-0.000354092,-0.4141
3302,-0.00035409,-0.4343
3303,-0.000354088,-0.4141
3304,-0.000354086,-0.4141
3305,-0.000354084,-0.4343
3306,-0.000354082,-0.4343
3307,-0.00035408,-0.4141
3308,-0.000354078,-0.4343
3309,-0.000354076,-0.4343
3310,-0.000354074,-0.4141
3311,-0.000354072,-0.4343
3312,-0.00035407,-0.4343
3313,-0.000354068,-0.4343
3314,-0.000354066,-0.4343
3315,-0.000354064,-0.4343
3316,-0.000354062,-0.4343
3317,-0.00035406,-0.4141
3318,-0.000354058,-0.4343
3319,-0.000354056,-0.4343
3320,-0.000354054,-0.4343
3321,-0.000354052,-0.4343
3322,-0.00035405,-0.4343
3323,-0.000354048,-0.4141
3324,-0.000354046,-0.4343
3325,-0.000354044,-0.4343
3326,-0.000354042,-0.4343
3327,-0.00035404,-0.4343
3328,-0.000354038,-0.4343
3329,-0.000354036,-0.4343
3330,-0.000354034,-0.4343
3331,-0.000354032,-0.4343
3332,-0.00035403,-0.4343
3333,-0.000354028,-0.4343
3334,-0.000354026,-0.4343
3335,-0.000354024,-0.4141
3336,-0.000354022,-0.4141
3337,-0.00035402,-0.4343
3338,-0.000354018,-0.4343
3339,-0.000354016,-0.4343
3340,-0.000354014,-0.4343
3341,-0.000354012,-0.4343
3342,-0.00035401,-0.4343
3343,-0.000354008,-0.4343
3344,-0.000354006,-0.4343
3345,-0.000354004,-0.4343
3346,-0.000354002,-0.4343
3347,-0.000354,-0.4141
3348,-0.000353998,-0.4141
3349,-0.000353996,-0.4343
3350,-0.000353994,-0.4343
3351,-0.000353992,-0.4343
3352,-0.00035399,-0.4343
3353,-0.000353988,-0.4343
3354,-0.000353986,-0.4141
3355,-0.000353984,-0.4343
3356,-0.000353982,-0.4141
3357,-0.00035398,-0.4343
3358,-0.000353978,-0.4141
3359,-0.000353976,-0.4343
3360,-0.000353974,-0.4343
3361,-0.000353972,-0.4343
3362,-0.00035397,-0.4343
3363,-0.000353968,-0.4343
3364,-0.000353966,-0.4343
3365,-0.000353964,-0.4343
3366,-0.000353962,-0.4343
3367,-0.00035396,-0.4343
3368,-0.000353958,-0.4343
3369,-0.000353956,-0.4343
3370,-0.000353954,-0.4343
3371,-0.000353952,-0.4343
3372,-0.00035395,-0.4343
3373,-0.000353948,-0.4343
3374,-0.000353946,-0.4343
3375,-0.000353944,-0.4343
3376,-0.000353942,-0.4343
3377,-0.00035394,-0.4343
3378,-0.000353938,-0.4141
3379,-0.000353936,-0.4343
3380,-0.000353934,-0.4343
3381,-0.000353932,-0.4343
3382,-0.00035393,-0.4343
3383,-0.000353928,-0.4343
3384,-0.000353926,-0.4343
3385,-0.000353924,-0.4343
3386,-0.000353922,-0.4343
3387,-0.00035392,-0.4343
3388,-0.000353918,-0.4343
3389,-0.000353916,-0.4343
3390,-0.000353914,-0.4343
3391,-0.000353912,-0.4343
3392,-0.00035391,-0.4343
3393,-0.000353908,-0.4343
3394,-0.000353906,-0.4343
3395,-0.000353904,-0.4343
3396,-0.000353902,-0.4343
3397,-0.0003539,-0.4343
3398,-0.000353898,-0.4141
3399,-0.000353896,-0.4343
3400,-0.000353894,-0.4343
3401,-0.000353892,-0.4343
3402,-0.00035389,-0.4343
3403,-0.000353888,-0.4141
3404,-0.000353886,-0.4141
3405,-0.000353884,-0.4343
3406,-0.000353882,-0.4343
3407,-0.00035388,-0.4343
3408,-0.000353878,-0.4343
3409,-0.000353876,-0.4343
3410,-0.000353874,-0.4343
3411,-0.000353872,-0.4343
3412,-0.00035387,-0.4343
3413,-0.000353868,-0.4343
3414,-0.000353866,-0.4343
3415,-0.000353864,-0.4343
3416,-0.000353862,-0.4343
3417,-0.00035386,-0.4343
3418,-0.000353858,-0.4141
3419,-0.000353856,-0.4141
3420,-0.000353854,-0.4343
3421,-0.000353852,-0.4343
3422,-0.00035385,-0.4141
3423,-0.000353848,-0.4343
3424,-0.000353846,-0.4343
3425,-0.000353844,-0.4343
3426,-0.000353842,-0.4343
3427,-0.00035384,-0.4343
3428,-0.000353838,-0.4343
3429,-0.000353836,-0.4343
3430,-0.000353834,-0.4343
3431,-0.000353832,-0.4343
3432,-0.00035383,-0.4343
3433,-0.000353828,-0.4343
3434,-0.000353826,-0.4343
3435,-0.000353824,-0.4343
3436,-0.000353822,-0.4343
3437,-0.00035382,-0.4141
3438,-0.000353818,-0.4343
3439,-0.000353816,-0.4343
3440,-0.000353814,-0.4343
3441,-0.000353812,-0.4343
3442,-0.00035381,-0.4343
3443,-0.000353808,-0.4141
3444,-0.000353806,-0.4141
3445,-0.000353804,-0.4141
3446,-0.000353802,-0.4343
3447,-0.0003538,-0.4343
3448,-0.000353798,-0.4343
3449,-0.000353796,-0.4343
3450,-0.000353794,-0.4343
3451,-0.000353792,-0.4343
3452,-0.00035379,-0.4343
3453,-0.000353788,-0.4343
3454,-0.000353786,-0.4343
3455,-0.000353784,-0.4343
3456,-0.000353782,-0.4343
3457,-0.00035378,-0.4343
3458,-0.000353778,-0.4343
3459,-0.000353776,-0.4343
3460,-0.000353774,-0.4343
3461,-0.000353772,-0.4343
3462,-0.00035377,-0.4343
3463,-0.000353768,-0.4343
3464,-0.000353766,-0.4343
3465,-0.000353764,-0.4343
3466,-0.000353762,-0.4343
3467,-0.00035376,-0.4343
3468,-0.000353758,-0.4343
3469,-0.000353756,-0.4343
3470,-0.000353754,-0.4343
3471,-0.000353752,-0.4343
3472,-0.00035375,-0.4343
3473,-0.000353748,-0.4343
3474,-0.000353746,-0.4343
3475,-0.000353744,-0.4343
3476,-0.000353742,-0.4343
3477,-0.00035374,-0.4343
3478,-0.000353738,-0.4343
3479,-0.000353736,-0.4343
3480,-0.000353734,-0.4343
3481,-0.000353732,-0.4343
3482,-0.00035373,-0.4343
3483,-0.000353728,-0.4343
3484,-0.000353726,-0.4343
3485,-0.000353724,-0.4343
3486,-0.000353722,-0.4343
3487,-0.00035372,-0.4343
3488,-0.000353718,-0.4343
3489,-0.000353716,-0.4343
3490,-0.000353714,-0.4343
3491,-0.000353712,-0.4343
3492,-0.00035371,-0.4343
3493,-0.000353708,-0.4343
3494,-0.000353706,-0.4343
3495,-0.000353704,-0.4343
3496,-0.000353702,-0.4141
3497,-0.0003537,-0.4343
3498,-0.000353698,-0.4141
3499,-0.000353696,-0.4343
3500,-0.000353694,-0.4343
3501,-0.000353692,-0.4343
3502,-0.00035369,-0.4343
3503,-0.000353688,-0.4343
3504,-0.000353686,-0.4343
3505,-0.000353684,-0.4343
3506,-0.000353682,-0.4343
3507,-0.00035368,-0.4141
3508,-0.000353678,-0.4343
3509,-0.000353676,-0.4343
3510,-0.000353674,-0.4343
3511,-0.000353672,-0.4343
3512,-0.00035367,-0.4343
3513,-0.000353668,-0.4343
3514,-0.000353666,-0.4343
3515,-0.000353664,-0.4343
3516,-0.000353662,-0.4343
3517,-0.00035366,-0.4343
3518,-0.000353658,-0.4343
3519,-0.000353656,-0.4343
3520,-0.000353654,-0.4343
3521,-0.000353652,-0.4343
3522,-0.00035365,-0.4343
3523,-0.000353648,-0.4343
3524,-0.000353646,-0.4343
3525,-0.000353644,-0.4343
3526,-0.000353642,-0.4343
3527,-0.00035364,-0.4343
3528,-0.000353638,-0.4343
3529,-0.000353636,-0.4343
3530,-0.000353634,-0.4343
3531,-0.000353632,-0.4343
3532,-0.00035363,-0.4343
3533,-0.000353628,-0.4343
3534,-0.000353626,-0.4343
3535,-0.000353624,-0.4343
3536,-0.000353622,-0.4343
3537,-0.00035362,-0.4343
3538,-0.000353618,-0.4343
3539,-0.000353616,-0.4343
3540,-0.000353614,-0.4343
3541,-0.000353612,-0.4343
3542,-0.00035361,-0.4343
3543,-0.000353608,-0.4343
3544,-0.000353606,-0.4343
3545,-0.000353604,-0.4343
3546,-0.000353602,-0.4343
3547,-0.0003536,-0.4141
3548,-0.000353598,-0.4343
3549,-0.000353596,-0.4343
3550,-0.000353594,-0.4343
3551,-0.000353592,-0.4343
3552,-0.00035359,-0.4343
3553,-0.000353588,-0.4343
3554,-0.000353586,-0.4343
3555,-0.000353584,-0.4343
3556,-0.000353582,-0.4343
3557,-0.00035358,-0.4141
3558,-0.000353578,-0.4141
3559,-0.000353576,-0.4141
3560,-0.000353574,-0.4343
3561,-0.000353572,-0.4343
3562,-0.00035357,-0.4343
3563,-0.000353568,-0.4141
3564,-0.000353566,-0.4141
3565,-0.000353564,-0.4343
3566,-0.000353562,-0.4141
3567,-0.00035356,-0.4343
3568,-0.000353558,-0.4343
3569,-0.000353556,-0.4343
3570,-0.000353554,-0.4343
3571,-0.000353552,-0.4343
3572,-0.00035355,-0.4343
3573,-0.000353548,-0.4141
3574,-0.000353546,-0.4343
3575,-0.000353544,-0.4343
3576,-0.000353542,-0.4141
3577,-0.00035354,-0.4343
3578,-0.000353538,-0.4343
3579,-0.000353536,-0.4343
3580,-0.000353534,-0.4343
3581,-0.000353532,-0.4343
3582,-0.00035353,-0.4343
3583,-0.000353528,-0.4141
3584,-0.000353526,-0.4141
3585,-0.000353524,-0.4141
3586,-0.000353522,-0.4141
3587,-0.00035352,-0.4141
3588,-0.000353518,-0.4141
3589,-0.000353516,-0.4141
3590,-0.000353514,-0.4343
3591,-0.000353512,-0.4343
3592,-0.00035351,-0.4343
3593,-0.000353508,-0.4343
3594,-0.000353506,-0.4141
3595,-0.000353504,-0.4343
3596,-0.000353502,-0.4141
3597,-0.0003535,-0.4343
3598,-0.000353498,-0.4343
3599,-0.000353496,-0.4343
3600,-0.000353494,-0.4343
3601,-0.000353492,-0.4343
3602,-0.00035349,-0.4343
3603,-0.000353488,-0.4343
3604,-0.000353486,-0.4141
3605,-0.000353484,-0.4343
3606,-0.000353482,-0.4343
3607,-0.00035348,-0.4343
3608,-0.000353478,-0.4343
3609,-0.000353476,-0.4343
3610,-0.000353474,-0.4343
3611,-0.000353472,-0.4343
3612,-0.00035347,-0.4343
3613,-0.000353468,-0.4343
3614,-0.000353466,-0.4141
3615,-0.000353464,-0.4343
3616,-0.000353462,-0.4141
3617,-0.00035346,-0.4343
3618,-0.000353458,-0.4343
3619,-0.000353456,-0.4343
3620,-0.000353454,-0.4343
3621,-0.000353452,-0.4343
3622,-0.00035345,-0.4343
3623,-0.000353448,-0.4141
3624,-0.000353446,-0.4343
3625,-0.000353444,-0.4343
3626,-0.000353442,-0.4343
3627,-0.00035344,-0.4343
3628,-0.000353438,-0.4343
3629,-0.000353436,-0.4141
3630,-0.000353434,-0.4343
3631,-0.000353432,-0.4343
3632,-0.00035343,-0.4141
3633,-0.000353428,-0.4343
3634,-0.000353426,-0.4343
3635,-0.000353424,-0.4343
3636,-0.000353422,-0.4343
3637,-0.00035342,-0.4343
3638,-0.000353418,-0.4343
3639,-0.000353416,-0.4343
3640,-0.000353414,-0.4343
3641,-0.000353412,-0.4141
3642,-0.00035341,-0.4343
3643,-0.000353408,-0.4141
3644,-0.000353406,-0.4141
3645,-0.000353404,-0.4343
3646,-0.000353402,-0.4343
3647,-0.0003534,-0.4343
3648,-0.000353398,-0.4343
3649,-0.000353396,-0.4343
3650,-0.000353394,-0.4343
3651,-0.000353392,-0.4343
3652,-0.00035339,-0.4343
3653,-0.000353388,-0.4343
3654,-0.000353386,-0.4343
3655,-0.000353384,-0.4343
3656,-0.000353382,-0.4343
3657,-0.00035338,-0.4343
3658,-0.000353378,-0.4343
3659,-0.000353376,-0.4141
3660,-0.000353374,-0.4343
3661,-0.000353372,-0.4343
3662,-0.00035337,-0.4343
3663,-0.000353368,-0.4343
3664,-0.000353366,-0.4343
3665,-0.000353364,-0.4343
3666,-0.000353362,-0.4343
3667,-0.00035336,-0.4343
3668,-0.000353358,-0.4343
3669,-0.000353356,-0.4343
3670,-0.000353354,-0.4343
3671,-0.000353352,-0.4141
3672,-0.00035335,-0.4141
3673,-0.000353348,-0.4343
3674,-0.000353346,-0.4343
3675,-0.000353344,-0.4343
3676,-0.000353342,-0.4343
3677,-0.00035334,-0.4343
3678,-0.000353338,-0.4343
3679,-0.000353336,-0.4343
3680,-0.000353334,-0.4343
3681,-0.000353332,-0.4343
3682,-0.00035333,-0.4343
3683,-0.000353328,-0.4343
3684,-0.000353326,-0.4343
3685,-0.000353324,-0.4141
3686,-0.000353322,-0.4343
3687,-0.00035332,-0.4343
3688,-0.000353318,-0.4343
3689,-0.000353316,-0.4343
3690,-0.000353314,-0.4343
3691,-0.000353312,-0.4343
3692,-0.00035331,-0.4343
3693,-0.000353308,-0.4343
3694,-0.000353306,-0.4343
3695,-0.000353304,-0.4343
3696,-0.000353302,-0.4141
3697,-0.0003533,-0.4343
3698,-0.000353298,-0.4343
3699,-0.000353296,-0.4343
3700,-0.000353294,-0.4343
3701,-0.000353292,-0.4343
3702,-0.00035329,-0.4343
3703,-0.000353288,-0.4343
3704,-0.000353286,-0.4343
3705,-0.000353284,-0.4343
3706,-0.000353282,-0.4343
3707,-0.00035328,-0.4343
3708,-0.000353278,-0.4343
3709,-0.000353276,-0.4343
3710,-0.000353274,-0.4343
3711,-0.000353272,-0.4343
3712,-0.00035327,-0.4343
3713,-0.000353268,-0.4343
3714,-0.000353266,-0.4343
3715,-0.000353264,-0.4343
3716,-0.000353262,-0.4141
3717,-0.00035326,-0.4141
3718,-0.000353258,-0.4343
3719,-0.000353256,-0.4343
3720,-0.000353254,-0.4343
3721,-0.000353252,-0.4343
3722,-0.00035325,-0.4343
3723,-0.000353248,-0.4141
3724,-0.000353246,-0.4141
3725,-0.000353244,-0.4141
3726,-0.000353242,-0.4343
3727,-0.00035324,-0.4343
3728,-0.000353238,-0.4343
3729,-0.000353236,-0.4343
3730,-0.000353234,-0.4343
3731,-0.000353232,-0.4343
3732,-0.00035323,-0.4141
3733,-0.000353228,-0.4343
3734,-0.000353226,-0.4343
3735,-0.000353224,-0.4343
3736,-0.000353222,-0.4343
3737,-0.00035322,-0.4343
3738,-0.000353218,-0.4343
3739,-0.000353216,-0.4343
3740,-0.000353214,-0.4343
3741,-0.000353212,-0.4343
3742,-0.00035321,-0.4141
3743,-0.000353208,-0.4343
3744,-0.000353206,-0.4343
3745,-0.000353204,-0.4141
3746,-0.000353202,-0.4343
3747,-0.0003532,-0.4343
3748,-0.000353198,-0.4343
3749,-0.000353196,-0.4343
3750,-0.000353194,-0.4343
3751,-0.000353192,-0.4343
3752,-0.00035319,-0.4343
3753,-0.000353188,-0.4343
3754,-0.000353186,-0.4343
3755,-0.000353184,-0.4343
3756,-0.000353182,-0.4343
3757,-0.00035318,-0.4343
3758,-0.000353178,-0.4343
3759,-0.000353176,-0.4343
3760,-0.000353174,-0.4343
3761,-0.000353172,-0.4343
3762,-0.00035317,-0.4343
3763,-0.000353168,-0.4343
3764,-0.000353166,-0.4343
3765,-0.000353164,-0.4343
3766,-0.000353162,-0.4343
3767,-0.00035316,-0.4343
3768,-0.000353158,-0.4343
3769,-0.000353156,-0.4343
3770,-0.000353154,-0.4343
3771,-0.000353152,-0.4343
3772,-0.00035315,-0.4343
3773,-0.000353148,-0.4343
3774,-0.000353146,-0.4343
3775,-0.000353144,-0.4343
3776,-0.000353142,-0.4343
3777,-0.00035314,-0.4343
3778,-0.000353138,-0.4343
3779,-0.000353136,-0.4343
3780,-0.000353134,-0.4343
3781,-0.000353132,-0.4343
3782,-0.00035313,-0.4343
3783,-0.000353128,-0.4343
3784,-0.000353126,-0.4343
3785,-0.000353124,-0.4343
3786,-0.000353122,-0.4343
3787,-0.00035312,-0.4343
3788,-0.000353118,-0.4141
3789,-0.000353116,-0.4343
3790,-0.000353114,-0.4343
3791,-0.000353112,-0.4343
3792,-0.00035311,-0.4343
3793,-0.000353108,-0.4343
3794,-0.000353106,-0.4343
3795,-0.000353104,-0.4343
3796,-0.000353102,-0.4343
3797,-0.0003531,-0.4343
3798,-0.000353098,-0.4343
3799,-0.000353096,-0.4343
3800,-0.000353094,-0.4343
3801,-0.000353092,-0.4343
3802,-0.00035309,-0.4343
3803,-0.000353088,-0.4343
3804,-0.000353086,-0.4343
3805,-0.000353084,-0.4343
3806,-0.000353082,-0.4141
3807,-0.00035308,-0.4141
3808,-0.000353078,-0.4343
3809,-0.000353076,-0.4343
3810,-0.000353074,-0.4343
3811,-0.000353072,-0.4343
3812,-0.00035307,-0.4343
3813,-0.000353068,-0.4343
3814,-0.000353066,-0.4343
3815,-0.000353064,-0.4343
3816,-0.000353062,-0.4343
3817,-0.00035306,-0.4343
3818,-0.000353058,-0.4343
3819,-0.000353056,-0.4343
3820,-0.000353054,-0.4343
3821,-0.000353052,-0.4343
3822,-0.00035305,-0.4343
3823,-0.000353048,-0.4343
3824,-0.000353046,-0.4343
3825,-0.000353044,-0.4343
3826,-0.000353042,-0.4343
3827,-0.00035304,-0.4343
3828,-0.000353038,-0.4343
3829,-0.000353036,-0.4343
3830,-0.000353034,-0.4141
3831,-0.000353032,-0.4141
3832,-0.00035303,-0.4141
3833,-0.000353028,-0.4343
3834,-0.000353026,-0.4343
3835,-0.000353024,-0.4141
3836,-0.000353022,-0.4141
3837,-0.00035302,-0.4141
3838,-0.000353018,-0.4141
3839,-0.000353016,-0.4343
3840,-0.000353014,-0.4343
3841,-0.000353012,-0.4343
3842,-0.00035301,-0.4343
3843,-0.000353008,-0.4343
3844,-0.000353006,-0.4343
3845,-0.000353004,-0.4343
3846,-0.000353002,-0.4343
3847,-0.000353,-0.4343
3848,-0.000352998,-0.4343
3849,-0.000352996,-0.4343
3850,-0.000352994,-0.4343
3851,-0.000352992,-0.4343
3852,-0.00035299,-0.4343
3853,-0.000352988,-0.4343
3854,-0.000352986,-0.4343
3855,-0.000352984,-0.4343
3856,-0.000352982,-0.4343
3857,-0.00035298,-0.4343
3858,-0.000352978,-0.4343
3859,-0.000352976,-0.4343
3860,-0.000352974,-0.4343
3861,-0.000352972,-0.4343
3862,-0.00035297,-0.4343
3863,-0.000352968,-0.4141
3864,-0.000352966,-0.4343
3865,-0.000352964,-0.4141
3866,-0.000352962,-0.4343
3867,-0.00035296,-0.4343
3868,-0.000352958,-0.4343
3869,-0.000352956,-0.4343
3870,-0.000352954,-0.4343
3871,-0.000352952,-0.4343
3872,-0.00035295,-0.4343
3873,-0.000352948,-0.4343
3874,-0.000352946,-0.4343
3875,-0.000352944,-0.4343
3876,-0.000352942,-0.4343
3877,-0.00035294,-0.4141
3878,-0.000352938,-0.4343
3879,-0.000352936,-0.4343
3880,-0.000352934,-0.4141
3881,-0.000352932,-0.4343
3882,-0.00035293,-0.4343
3883,-0.000352928,-0.4343
3884,-0.000352926,-0.4343
3885,-0.000352924,-0.4343
3886,-0.000352922,-0.4343
3887,-0.00035292,-0.4343
3888,-0.000352918,-0.4343
3889,-0.000352916,-0.4141
3890,-0.000352914,-0.4141
3891,-0.000352912,-0.4141
3892,-0.00035291,-0.4141
3893,-0.000352908,-0.4343
3894,-0.000352906,-0.4343
3895,-0.000352904,-0.4343
3896,-0.000352902,-0.4343
3897,-0.0003529,-0.4343
3898,-0.000352898,-0.4141
3899,-0.000352896,-0.4141
3900,-0.000352894,-0.4343
3901,-0.000352892,-0.4343
3902,-0.00035289,-0.4343
3903,-0.000352888,-0.4343
3904,-0.000352886,-0.4343
3905,-0.000352884,-0.4343
3906,-0.000352882,-0.4343
3907,-0.00035288,-0.4343
3908,-0.000352878,-0.4343
3909,-0.000352876,-0.4343
3910,-0.000352874,-0.4343
3911,-0.000352872,-0.4343
3912,-0.00035287,-0.4343
3913,-0.000352868,-0.4343
3914,-0.000352866,-0.4343
3915,-0.000352864,-0.4343
3916,-0.000352862,-0.4343
3917,-0.00035286,-0.4343
3918,-0.000352858,-0.4343
3919,-0.000352856,-0.4343
3920,-0.000352854,-0.4343
3921,-0.000352852,-0.4343
3922,-0.00035285,-0.4343
3923,-0.000352848,-0.4343
3924,-0.000352846,-0.4343
3925,-0.000352844,-0.4343
3926,-0.000352842,-0.4343
3927,-0.00035284,-0.4343
3928,-0.000352838,-0.4343
3929,-0.000352836,-0.4343
3930,-0.000352834,-0.4343
3931,-0.000352832,-0.4343
3932,-0.00035283,-0.4343
3933,-0.000352828,-0.4141
3934,-0.000352826,-0.4343
3935,-0.000352824,-0.4343
3936,-0.000352822,-0.4343
3937,-0.00035282,-0.4343
3938,-0.000352818,-0.4343
3939,-0.000352816,-0.4141
3940,-0.000352814,-0.4343
3941,-0.000352812,-0.4343
3942,-0.00035281,-0.4343
3943,-0.000352808,-0.4343
3944,-0.000352806,-0.4343
3945,-0.000352804,-0.4343
3946,-0.000352802,-0.4343
3947,-0.0003528,-0.4343
3948,-0.000352798,-0.4343
3949,-0.000352796,-0.4343
3950,-0.000352794,-0.4343
3951,-0.000352792,-0.4343
3952,-0.00035279,-0.4141
3953,-0.000352788,-0.4343
3954,-0.000352786,-0.4343
3955,-0.000352784,-0.4343
3956,-0.000352782,-0.4343
3957,-0.00035278,-0.4343
3958,-0.000352778,-0.4343
3959,-0.000352776,-0.4343
3960,-0.000352774,-0.4343
3961,-0.000352772,-0.4343
3962,-0.00035277,-0.4343
3963,-0.000352768,-0.4343
3964,-0.000352766,-0.4343
3965,-0.000352764,-0.4343
3966,-0.000352762,-0.4343
3967,-0.00035276,-0.4141
3968,-0.000352758,-0.4343
3969,-0.000352756,-0.4343
3970,-0.000352754,-0.4343
3971,-0.000352752,-0.4343
3972,-0.00035275,-0.4141
3973,-0.000352748,-0.4343
3974,-0.000352746,-0.4343
3975,-0.000352744,-0.4343
3976,-0.000352742,-0.4343
3977,-0.00035274,-0.4343
3978,-0.000352738,-0.4343
3979,-0.000352736,-0.4141
3980,-0.000352734,-0.4141
3981,-0.000352732,-0.4343
3982,-0.00035273,-0.4141
3983,-0.000352728,-0.4343
3984,-0.000352726,-0.4141
3985,-0.000352724,-0.4343
3986,-0.000352722,-0.4343
3987,-0.00035272,-0.4343
3988,-0.000352718,-0.4141
3989,-0.000352716,-0.4343
3990,-0.000352714,-0.4343
3991,-0.000352712,-0.4343
3992,-0.00035271,-0.4141
3993,-0.000352708,-0.4343
3994,-0.000352706,-0.4343
3995,-0.000352704,-0.4343
3996,-0.000352702,-0.4343
3997,-0.0003527,-0.4343
3998,-0.000352698,-0.4343
3999,-0.000352696,-0.4343
4000,-0.000352694,-0.4141
4001,-0.000352692,-0.4343
4002,-0.00035269,-0.4343
4003,-0.000352688,-0.4141
4004,-0.000352686,-0.4141
4005,-0.000352684,-0.4141
4006,-0.000352682,-0.4141
4007,-0.00035268,-0.4343
4008,-0.000352678,-0.4343
4009,-0.000352676,-0.4343
4010,-0.000352674,-0.4141
4011,-0.000352672,-0.4141
4012,-0.00035267,-0.4141
4013,-0.000352668,-0.4141
4014,-0.000352666,-0.4141
4015,-0.000352664,-0.4141
4016,-0.000352662,-0.4343
4017,-0.00035266,-0.4343
4018,-0.000352658,-0.4343
4019,-0.000352656,-0.4343
4020,-0.000352654,-0.4343
4021,-0.000352652,-0.4343
4022,-0.00035265,-0.4343
4023,-0.000352648,-0.4343
4024,-0.000352646,-0.4343
4025,-0.000352644,-0.4141
4026,-0.000352642,-0.4141
4027,-0.00035264,-0.4343
4028,-0.000352638,-0.4141
4029,-0.000352636,-0.4343
4030,-0.000352634,-0.4343
4031,-0.000352632,-0.4343
4032,-0.00035263,-0.4141
4033,-0.000352628,-0.4141
4034,-0.000352626,-0.4343
4035,-0.000352624,-0.4343
4036,-0.000352622,-0.4343
4037,-0.00035262,-0.4343
4038,-0.000352618,-0.4141
4039,-0.000352616,-0.4343
4040,-0.000352614,-0.4343
4041,-0.000352612,-0.4343
4042,-0.00035261,-0.4141
4043,-0.000352608,-0.4141
4044,-0.000352606,-0.4141
4045,-0.000352604,-0.4141
4046,-0.000352602,-0.4343
4047,-0.0003526,-0.4343
4048,-0.000352598,-0.4343
4049,-0.000352596,-0.4343
4050,-0.000352594,-0.4343
4051,-0.000352592,-0.4343
4052,-0.00035259,-0.4343
4053,-0.000352588,-0.4343
4054,-0.000352586,-0.4343
4055,-0.000352584,-0.4343
4056,-0.000352582,-0.4141
4057,-0.00035258,-0.4141
4058,-0.000352578,-0.4141
4059,-0.000352576,-0.4343
4060,-0.000352574,-0.4343
4061,-0.000352572,-0.4343
4062,-0.00035257,-0.4343
4063,-0.000352568,-0.4343
4064,-0.000352566,-0.4343
4065,-0.000352564,-0.4343
4066,-0.000352562,-0.4343
4067,-0.00035256,-0.4343
4068,-0.000352558,-0.4141
4069,-0.000352556,-0.4343
4070,-0.000352554,-0.4141
4071,-0.000352552,-0.4141
4072,-0.00035255,-0.4141
4073,-0.000352548,-0.4141
4074,-0.000352546,-0.4141
4075,-0.000352544,-0.4343
4076,-0.000352542,-0.4343
4077,-0.00035254,-0.4343
4078,-0.000352538,-0.4343
4079,-0.000352536,-0.4343
4080,-0.000352534,-0.4343
4081,-0.000352532,-0.4343
4082,-0.00035253,-0.4141
4083,-0.000352528,-0.4343
4084,-0.000352526,-0.4343
4085,-0.000352524,-0.4141
4086,-0.000352522,-0.4141
4087,-0.00035252,-0.4141
4088,-0.000352518,-0.4141
4089,-0.000352516,-0.4343
4090,-0.000352514,-0.4141
4091,-0.000352512,-0.4343
4092,-0.00035251,-0.4343
4093,-0.000352508,-0.4343
4094,-0.000352506,-0.4343
4095,-0.000352504,-0.4343
4096,-0.000352502,-0.4343
4097,-0.0003525,-0.4141
4098,-0.000352498,-0.4141
4099,-0.000352496,-0.4343
4100,-0.000352494,-0.4343
4101,-0.000352492,-0.4141
4102,-0.00035249,-0.4343
4103,-0.000352488,-0.4343
4104,-0.000352486,-0.4343
4105,-0.000352484,-0.4343
4106,-0.000352482,-0.4343
4107,-0.00035248,-0.4343
4108,-0.000352478,-0.4343
4109,-0.000352476,-0.4343
4110,-0.000352474,-0.4141
4111,-0.000352472,-0.4141
4112,-0.00035247,-0.4343
4113,-0.000352468,-0.4343
4114,-0.000352466,-0.4343
4115,-0.000352464,-0.4343
4116,-0.000352462,-0.4343
4117,-0.00035246,-0.4343
4118,-0.000352458,-0.4343
4119,-0.000352456,-0.4141
4120,-0.000352454,-0.4141
4121,-0.000352452,-0.4141
4122,-0.00035245,-0.4343
4123,-0.000352448,-0.4343
4124,-0.000352446,-0.4141
4125,-0.000352444,-0.4141
4126,-0.000352442,-0.4343
4127,-0.00035244,-0.4343
4128,-0.000352438,-0.4343
4129,-0.000352436,-0.4141
4130,-0.000352434,-0.4343
4131,-0.000352432,-0.4141
4132,-0.00035243,-0.4343
4133,-0.000352428,-0.4141
4134,-0.000352426,-0.4141
4135,-0.000352424,-0.4343
4136,-0.000352422,-0.4343
4137,-0.00035242,-0.4343
4138,-0.000352418,-0.4343
4139,-0.000352416,-0.4343
4140,-0.000352414,-0.4343
4141,-0.000352412,-0.4343
4142,-0.00035241,-0.4343
4143,-0.000352408,-0.4343
4144,-0.000352406,-0.4343
4145,-0.000352404,-0.4343
4146,-0.000352402,-0.4343
4147,-0.0003524,-0.4141
4148,-0.000352398,-0.4343
4149,-0.000352396,-0.4141
4150,-0.000352394,-0.4141
4151,-0.000352392,-0.4141
4152,-0.00035239,-0.4343
4153,-0.000352388,-0.4343
4154,-0.000352386,-0.4141
4155,-0.000352384,-0.4343
4156,-0.000352382,-0.4141
4157,-0.00035238,-0.4343
4158,-0.000352378,-0.4343
4159,-0.000352376,-0.4343
4160,-0.000352374,-0.4343
4161,-0.000352372,-0.4343
4162,-0.00035237,-0.4141
4163,-0.000352368,-0.4343
4164,-0.000352366,-0.4343
4165,-0.000352364,-0.4343
4166,-0.000352362,-0.4343
4167,-0.00035236,-0.4343
4168,-0.000352358,-0.4141
4169,-0.000352356,-0.4141
4170,-0.000352354,-0.4141
4171,-0.000352352,-0.4343
4172,-0.00035235,-0.4343
4173,-0.000352348,-0.4141
4174,-0.000352346,-0.4343
4175,-0.000352344,-0.4343
4176,-0.000352342,-0.4343
4177,-0.00035234,-0.4343
4178,-0.000352338,-0.4343
4179,-0.000352336,-0.4343
4180,-0.000352334,-0.4343
4181,-0.000352332,-0.4343
4182,-0.00035233,-0.4343
4183,-0.000352328,-0.4343
4184,-0.000352326,-0.4343
4185,-0.000352324,-0.4343
4186,-0.000352322,-0.4343
4187,-0.00035232,-0.4141
4188,-0.000352318,-0.4343
4189,-0.000352316,-0.4343
4190,-0.000352314,-0.4343
4191,-0.000352312,-0.4343
4192,-0.00035231,-0.4343
4193,-0.000352308,-0.4141
4194,-0.000352306,-0.4141
4195,-0.000352304,-0.4141
4196,-0.000352302,-0.4343
4197,-0.0003523,-0.4141
4198,-0.000352298,-0.4141
4199,-0.000352296,-0.4141
4200,-0.000352294,-0.4343
4201,-0.000352292,-0.4343
4202,-0.00035229,-0.4343
4203,-0.000352288,-0.4141
4204,-0.000352286,-0.4141
4205,-0.000352284,-0.4343
4206,-0.000352282,-0.4141
4207,-0.00035228,-0.4343
4208,-0.000352278,-0.4343
4209,-0.000352276,-0.4343
4210,-0.000352274,-0.4343
4211,-0.000352272,-0.4343
4212,-0.00035227,-0.4141
4213,-0.000352268,-0.4343
4214,-0.000352266,-0.4343
4215,-0.000352264,-0.4343
4216,-0.000352262,-0.4343
4217,-0.00035226,-0.4141
4218,-0.000352258,-0.4141
4219,-0.000352256,-0.4343
4220,-0.000352254,-0.4343
4221,-0.000352252,-0.4343
4222,-0.00035225,-0.4141
4223,-0.000352248,-0.4141
4224,-0.000352246,-0.4343
4225,-0.000352244,-0.4343
4226,-0.000352242,-0.4343
4227,-0.00035224,-0.4343
4228,-0.000352238,-0.4141
4229,-0.000352236,-0.4343
4230,-0.000352234,-0.4343
4231,-0.000352232,-0.4343
4232,-0.00035223,-0.4343
4233,-0.000352228,-0.4343
4234,-0.000352226,-0.4343
4235,-0.000352224,-0.4343
4236,-0.000352222,-0.4343
4237,-0.00035222,-0.4343
4238,-0.000352218,-0.4343
4239,-0.000352216,-0.4343
4240,-0.000352214,-0.4343
4241,-0.000352212,-0.4343
4242,-0.00035221,-0.4343
4243,-0.000352208,-0.4343
4244,-0.000352206,-0.4343
4245,-0.000352204,-0.4343
4246,-0.000352202,-0.4343
4247,-0.0003522,-0.4343
4248,-0.000352198,-0.4343
4249,-0.000352196,-0.4141
4250,-0.000352194,-0.4141
4251,-0.000352192,-0.4343
4252,-0.00035219,-0.4343
4253,-0.000352188,-0.4141
4254,-0.000352186,-0.4141
4255,-0.000352184,-0.4141
4256,-0.000352182,-0.4343
4257,-0.00035218,-0.4343
4258,-0.000352178,-0.4343
4259,-0.000352176,-0.4343
4260,-0.000352174,-0.4343
4261,-0.000352172,-0.4343
4262,-0.00035217,-0.4343
4263,-0.000352168,-0.4343
4264,-0.000352166,-0.4141
4265,-0.000352164,-0.4343
4266,-0.000352162,-0.4343
4267,-0.00035216,-0.4343
4268,-0.000352158,-0.4141
4269,-0.000352156,-0.4141
4270,-0.000352154,-0.4141
4271,-0.000352152,-0.4141
4272,-0.00035215,-0.4343
4273,-0.000352148,-0.4343
4274,-0.000352146,-0.4343
4275,-0.000352144,-0.4343
4276,-0.000352142,-0.4343
4277,-0.00035214,-0.4343
4278,-0.000352138,-0.4141
4279,-0.000352136,-0.4343
4280,-0.000352134,-0.4141
4281,-0.000352132,-0.4343
4282,-0.00035213,-0.4343
4283,-0.000352128,-0.4343
4284,-0.000352126,-0.4343
4285,-0.000352124,-0.4343
4286,-0.000352122,-0.4343
4287,-0.00035212,-0.4343
4288,-0.000352118,-0.4343
4289,-0.000352116,-0.4343
4290,-0.000352114,-0.4343
4291,-0.000352112,-0.4343
4292,-0.00035211,-0.4343
4293,-0.000352108,-0.4343
4294,-0.000352106,-0.4141
4295,-0.000352104,-0.4343
4296,-0.000352102,-0.4141
4297,-0.0003521,-0.4141
4298,-0.000352098,-0.4141
4299,-0.000352096,-0.4343
4300,-0.000352094,-0.4343
4301,-0.000352092,-0.4343
4302,-0.00035209,-0.4343
4303,-0.000352088,-0.4343
4304,-0.000352086,-0.4343
4305,-0.000352084,-0.4343
4306,-0.000352082,-0.4343
4307,-0.00035208,-0.4343
4308,-0.000352078,-0.4343
4309,-0.000352076,-0.4141
4310,-0.000352074,-0.4141
4311,-0.000352072,-0.4343
4312,-0.00035207,-0.4343
4313,-0.000352068,-0.4141
4314,-0.000352066,-0.4343
4315,-0.000352064,-0.4343
4316,-0.000352062,-0.4343
4317,-0.00035206,-0.4141
4318,-0.000352058,-0.4343
4319,-0.000352056,-0.4343
4320,-0.000352054,-0.4141
4321,-0.000352052,-0.4141
4322,-0.00035205,-0.4141
4323,-0.000352048,-0.4343
4324,-0.000352046,-0.4343
4325,-0.000352044,-0.4343
4326,-0.000352042,-0.4343
4327,-0.00035204,-0.4141
4328,-0.000352038,-0.4141
4329,-0.000352036,-0.4343
4330,-0.000352034,-0.4343
4331,-0.000352032,-0.4141
4332,-0.00035203,-0.4343
4333,-0.000352028,-0.4343
4334,-0.000352026,-0.4141
4335,-0.000352024,-0.4141
4336,-0.000352022,-0.4141
4337,-0.00035202,-0.4343
4338,-0.000352018,-0.4141
4339,-0.000352016,-0.4343
4340,-0.000352014,-0.4343
4341,-0.000352012,-0.4343
4342,-0.00035201,-0.4141
4343,-0.000352008,-0.4343
4344,-0.000352006,-0.4343
4345,-0.000352004,-0.4343
4346,-0.000352002,-0.4343
4347,-0.000352,-0.4343
4348,-0.000351998,-0.4343
4349,-0.000351996,-0.4343
4350,-0.000351994,-0.4343
4351,-0.000351992,-0.4343
4352,-0.00035199,-0.4141
4353,-0.000351988,-0.4343
4354,-0.000351986,-0.4343
4355,-0.000351984,-0.4343
4356,-0.000351982,-0.4343
4357,-0.00035198,-0.4343
4358,-0.000351978,-0.4343
4359,-0.000351976,-0.4343
4360,-0.000351974,-0.4343
4361,-0.000351972,-0.4141
4362,-0.00035197,-0.4141
4363,-0.000351968,-0.4141
4364,-0.000351966,-0.4343
4365,-0.000351964,-0.4343
4366,-0.000351962,-0.4343
4367,-0.00035196,-0.4141
4368,-0.000351958,-0.4343
4369,-0.000351956,-0.4343
4370,-0.000351954,-0.4343
4371,-0.000351952,-0.4343
4372,-0.00035195,-0.4343
4373,-0.000351948,-0.4343
4374,-0.000351946,-0.4343
4375,-0.000351944,-0.4343
4376,-0.000351942,-0.4343
4377,-0.00035194,-0.4343
4378,-0.000351938,-0.4343
4379,-0.000351936,-0.4343
4380,-0.000351934,-0.4141
4381,-0.000351932,-0.4343
4382,-0.00035193,-0.4343
4383,-0.000351928,-0.4343
4384,-0.000351926,-0.4343
4385,-0.000351924,-0.4343
4386,-0.000351922,-0.4343
4387,-0.00035192,-0.4343
4388,-0.000351918,-0.4141
4389,-0.000351916,-0.4141
4390,-0.000351914,-0.4343
4391,-0.000351912,-0.4343
4392,-0.00035191,-0.4343
4393,-0.000351908,-0.4343
4394,-0.000351906,-0.4343
4395,-0.000351904,-0.4343
4396,-0.000351902,-0.4343
4397,-0.0003519,-0.4343
4398,-0.000351898,-0.4343
4399,-0.000351896,-0.4343
4400,-0.000351894,-0.4343
4401,-0.000351892,-0.4343
4402,-0.00035189,-0.4343
4403,-0.000351888,-0.4343
4404,-0.000351886,-0.4343
4405,-0.000351884,-0.4343
4406,-0.000351882,-0.4343
4407,-0.00035188,-0.4343
4408,-0.000351878,-0.4343
4409,-0.000351876,-0.4343
4410,-0.000351874,-0.4343
4411,-0.000351872,-0.4343
4412,-0.00035187,-0.4343
4413,-0.000351868,-0.4343
4414,-0.000351866,-0.4343
4415,-0.000351864,-0.4343
4416,-0.000351862,-0.4343
4417,-0.00035186,-0.4343
4418,-0.000351858,-0.4343
4419,-0.000351856,-0.4343
4420,-0.000351854,-0.4343
4421,-0.000351852,-0.4343
4422,-0.00035185,-0.4343
4423,-0.000351848,-0.4343
4424,-0.000351846,-0.4343
4425,-0.000351844,-0.4343
4426,-0.000351842,-0.4141
4427,-0.00035184,-0.4343
4428,-0.000351838,-0.4343
4429,-0.000351836,-0.4141
4430,-0.000351834,-0.4343
4431,-0.000351832,-0.4343
4432,-0.00035183,-0.4343
4433,-0.000351828,-0.4343
4434,-0.000351826,-0.4343
4435,-0.000351824,-0.4343
4436,-0.000351822,-0.4343
4437,-0.00035182,-0.4343
4438,-0.000351818,-0.4141
4439,-0.000351816,-0.4343
4440,-0.000351814,-0.4141
4441,-0.000351812,-0.4343
4442,-0.00035181,-0.4343
4443,-0.000351808,-0.4141
4444,-0.000351806,-0.4343
4445,-0.000351804,-0.4343
4446,-0.000351802,-0.4343
4447,-0.0003518,-0.4141
4448,-0.000351798,-0.4141
4449,-0.000351796,-0.4141
4450,-0.000351794,-0.4141
4451,-0.000351792,-0.4343
4452,-0.00035179,-0.4343
4453,-0.000351788,-0.4343
4454,-0.000351786,-0.4343
4455,-0.000351784,-0.4343
4456,-0.000351782,-0.4343
4457,-0.00035178,-0.4343
4458,-0.000351778,-0.4343
4459,-0.000351776,-0.4343
4460,-0.000351774,-0.4343
4461,-0.000351772,-0.4343
4462,-0.00035177,-0.4343
4463,-0.000351768,-0.4141
4464,-0.000351766,-0.4141
4465,-0.000351764,-0.4141
4466,-0.000351762,-0.4141
4467,-0.00035176,-0.4343
4468,-0.000351758,-0.4343
4469,-0.000351756,-0.4343
4470,-0.000351754,-0.4343
4471,-0.000351752,-0.4343
4472,-0.00035175,-0.4343
4473,-0.000351748,-0.4343
4474,-0.000351746,-0.4343
4475,-0.000351744,-0.4343
4476,-0.000351742,-0.4343
4477,-0.00035174,-0.4343
4478,-0.000351738,-0.4141
4479,-0.000351736,-0.4141
4480,-0.000351734,-0.4141
4481,-0.000351732,-0.4343
4482,-0.00035173,-0.4343
4483,-0.000351728,-0.4343
4484,-0.000351726,-0.4343
4485,-0.000351724,-0.4141
4486,-0.000351722,-0.4343
4487,-0.00035172,-0.4141
4488,-0.000351718,-0.4141
4489,-0.000351716,-0.4141
4490,-0.000351714,-0.4343
4491,-0.000351712,-0.4343
4492,-0.00035171,-0.4343
4493,-0.000351708,-0.4343
4494,-0.000351706,-0.4343
4495,-0.000351704,-0.4343
4496,-0.000351702,-0.4343
4497,-0.0003517,-0.4343
4498,-0.000351698,-0.4343
4499,-0.000351696,-0.4141
4500,-0.000351694,-0.4343
4501,-0.000351692,-0.4343
4502,-0.00035169,-0.4343
4503,-0.000351688,-0.4343
4504,-0.000351686,-0.4343
4505,-0.000351684,-0.4141
4506,-0.000351682,-0.4343
4507,-0.00035168,-0.4343
4508,-0.000351678,-0.4141
4509,-0.000351676,-0.4141
4510,-0.000351674,-0.4343
4511,-0.000351672,-0.4343
4512,-0.00035167,-0.4343
4513,-0.000351668,-0.4343
4514,-0.000351666,-0.4343
4515,-0.000351664,-0.4343
4516,-0.000351662,-0.4343
4517,-0.00035166,-0.4343
4518,-0.000351658,-0.4343
4519,-0.000351656,-0.4343
4520,-0.000351654,-0.4343
4521,-0.000351652,-0.4343
4522,-0.00035165,-0.4343
4523,-0.000351648,-0.4343
4524,-0.000351646,-0.4141
4525,-0.000351644,-0.4141
4526,-0.000351642,-0.4141
4527,-0.00035164,-0.4343
4528,-0.000351638,-0.4343
4529,-0.000351636,-0.4141
4530,-0.000351634,-0.4141
4531,-0.000351632,-0.4141
4532,-0.00035163,-0.4141
4533,-0.000351628,-0.4141
4534,-0.000351626,-0.4343
4535,-0.000351624,-0.4343
4536,-0.000351622,-0.4141
4537,-0.00035162,-0.4343
4538,-0.000351618,-0.4141
4539,-0.000351616,-0.4343
4540,-0.000351614,-0.4343
4541,-0.000351612,-0.4343
4542,-0.00035161,-0.4343
4543,-0.000351608,-0.4343
4544,-0.000351606,-0.4343
4545,-0.000351604,-0.4141
4546,-0.000351602,-0.4343
4547,-0.0003516,-0.4343
4548,-0.000351598,-0.4343
4549,-0.000351596,-0.4141
4550,-0.000351594,-0.4141
4551,-0.000351592,-0.4343
4552,-0.00035159,-0.4343
4553,-0.000351588,-0.4343
4554,-0.000351586,-0.4343
4555,-0.000351584,-0.4343
4556,-0.000351582,-0.4141
4557,-0.00035158,-0.4141
4558,-0.000351578,-0.4141
4559,-0.000351576,-0.4141
4560,-0.000351574,-0.4343
4561,-0.000351572,-0.4343
4562,-0.00035157,-0.4343
4563,-0.000351568,-0.4343
4564,-0.000351566,-0.4343
4565,-0.000351564,-0.4343
4566,-0.000351562,-0.4343
4567,-0.00035156,-0.4141
4568,-0.000351558,-0.4343
4569,-0.000351556,-0.4343
4570,-0.000351554,-0.4343
4571,-0.000351552,-0.4343
4572,-0.00035155,-0.4343
4573,-0.000351548,-0.4343
4574,-0.000351546,-0.4141
4575,-0.000351544,-0.4141
4576,-0.000351542,-0.4141
4577,-0.00035154,-0.4141
4578,-0.000351538,-0.4343
4579,-0.000351536,-0.4343
4580,-0.000351534,-0.4141
4581,-0.000351532,-0.4141
4582,-0.00035153,-0.4141
4583,-0.000351528,-0.4141
4584,-0.000351526,-0.4343
4585,-0.000351524,-0.4343
4586,-0.000351522,-0.4343
4587,-0.00035152,-0.4343
4588,-0.000351518,-0.4343
4589,-0.000351516,-0.4343
4590,-0.000351514,-0.4343
4591,-0.000351512,-0.4343
4592,-0.00035151,-0.4343
4593,-0.000351508,-0.4343
4594,-0.000351506,-0.4343
4595,-0.000351504,-0.4343
4596,-0.000351502,-0.4343
4597,-0.0003515,-0.4343
4598,-0.000351498,-0.4343
4599,-0.000351496,-0.4343
4600,-0.000351494,-0.4343
4601,-0.000351492,-0.4343
4602,-0.00035149,-0.4343
4603,-0.000351488,-0.4343
4604,-0.000351486,-0.4343
4605,-0.000351484,-0.4343
4606,-0.000351482,-0.4343
4607,-0.00035148,-0.4343
4608,-0.000351478,-0.4343
4609,-0.000351476,-0.4343
4610,-0.000351474,-0.4343
4611,-0.000351472,-0.4343
4612,-0.00035147,-0.4343
4613,-0.000351468,-0.4343
4614,-0.000351466,-0.4343
4615,-0.000351464,-0.4343
4616,-0.000351462,-0.4343
4617,-0.00035146,-0.4141
4618,-0.000351458,-0.4343
4619,-0.000351456,-0.4343
4620,-0.000351454,-0.4343
4621,-0.000351452,-0.4343
4622,-0.00035145,-0.4343
4623,-0.000351448,-0.4343
4624,-0.000351446,-0.4343
4625,-0.000351444,-0.4141
4626,-0.000351442,-0.4343
4627,-0.00035144,-0.4141
4628,-0.000351438,-0.4141
4629,-0.000351436,-0.4141
4630,-0.000351434,-0.4343
4631,-0.000351432,-0.4343
4632,-0.00035143,-0.4141
4633,-0.000351428,-0.4141
4634,-0.000351426,-0.4141
4635,-0.000351424,-0.4343
4636,-0.000351422,-0.4343
4637,-0.00035142,-0.4343
4638,-0.000351418,-0.4141
4639,-0.000351416,-0.4141
4640,-0.000351414,-0.4141
4641,-0.000351412,-0.4141
4642,-0.00035141,-0.4343
4643,-0.000351408,-0.4343
4644,-0.000351406,-0.4343
4645,-0.000351404,-0.4343
4646,-0.000351402,-0.4343
4647,-0.0003514,-0.4343
4648,-0.000351398,-0.4141
4649,-0.000351396,-0.4343
4650,-0.000351394,-0.4141
4651,-0.000351392,-0.4141
4652,-0.00035139,-0.4343
4653,-0.000351388,-0.4343
4654,-0.000351386,-0.4343
4655,-0.000351384,-0.4141
4656,-0.000351382,-0.4141
4657,-0.00035138,-0.4141
4658,-0.000351378,-0.4343
4659,-0.000351376,-0.4343
4660,-0.000351374,-0.4343
4661,-0.000351372,-0.4343
4662,-0.00035137,-0.4343
4663,-0.000351368,-0.4343
4664,-0.000351366,-0.4343
4665,-0.000351364,-0.4343
4666,-0.000351362,-0.4141
4667,-0.00035136,-0.4343
4668,-0.000351358,-0.4343
4669,-0.000351356,-0.4343
4670,-0.000351354,-0.4141
4671,-0.000351352,-0.4343
4672,-0.00035135,-0.4343
4673,-0.000351348,-0.4343
4674,-0.000351346,-0.4343
4675,-0.000351344,-0.4141
4676,-0.000351342,-0.4343
4677,-0.00035134,-0.4343
4678,-0.000351338,-0.4343
4679,-0.000351336,-0.4343
4680,-0.000351334,-0.4343
4681,-0.000351332,-0.4343
4682,-0.00035133,-0.4141
4683,-0.000351328,-0.4343
4684,-0.000351326,-0.4343
4685,-0.000351324,-0.4343
4686,-0.000351322,-0.4343
4687,-0.00035132,-0.4141
4688,-0.000351318,-0.4141
4689,-0.000351316,-0.4343
4690,-0.000351314,-0.4141
4691,-0.000351312,-0.4343
4692,-0.00035131,-0.4343
4693,-0.000351308,-0.4141
4694,-0.000351306,-0.4141
4695,-0.000351304,-0.4141
4696,-0.000351302,-0.4343
