-0.6161426083605563
-0.6162068568498636
-0.6155704359778063
-0.6140859449566767
-0.6118312701025783
-0.6089616879153148
-0.6056325427039349
-0.6019991764028019
-0.5982169285715941
-0.5944411363953059
-0.5908271346842451
-0.5875302558740358
-0.5847058300256163
-0.5824812124019294
-0.5808141727027246
-0.579598908461618
-0.578729502578185
-0.5781000355773166
-0.5776045856092189
-0.5771372284494123
-0.5765920374987331
-0.5758630837833318
-0.5748444359546749
-0.5734444448595705
-0.5716665892478165
-0.5695529720952843
-0.5671450957258977
-0.5644843294756776
-0.5616120403059603
-0.5585695928033969
-0.5553983491799537
-0.5521396692729121
-0.5488349105448682
-0.5455216883769943
-0.542210213220998
-0.5388985030744484
-0.5355845180005343
-0.5322662156877593
-0.5289415514499429
-0.5256084782262185
-0.5222649465810351
-0.5189089047041571
-0.5155382984106631
-0.5121517628464642
-0.5087535183153891
-0.5053504860214689
-0.5019496024386586
-0.49855780166622776
-0.4951820154287616
-0.49182917307616025
-0.48850620158363867
-0.4852200255517273
-0.4819775672062707
-0.47878298114215145
-0.47561573771723176
-0.47244233138192127
-0.46922913882713535
-0.4659425343691034
-0.4625417231019129
-0.4589831472332526
-0.45524071764668783
-0.45128879382313747
-0.44710174161890626
-0.44265730066600883
-0.4379665172038537
-0.4330594428546266
-0.427966357257506
-0.4227175464270567
-0.4173433027532292
-0.4118739250013589
-0.4063397183121673
-0.4007709942017612
-0.3951980705616335
-0.38965133893726545
-0.38416193666883247
-0.3787614649962677
-0.3734815383293877
-0.36835377745339426
-0.363409809528875
-0.3586812680918027
-0.354199793053536
-0.3499970307008188
-0.3461046336957807
-0.34254938016246483
-0.3392982225552067
-0.3362779978718844
-0.33341480903311094
-0.33063476533488534
-0.3278639824485903
-0.3250285824209961
-0.3220546936742572
-0.3188684510059151
-0.3153959955888953
-0.3115671603638607
-0.3073623817208734
-0.3027988500399793
-0.2978945884574282
-0.29266762648485556
-0.28713600000928174
-0.281317751293114
-0.27523092897414403
-0.2688935880655495
-0.2623237899558931
-0.2555436316256835
-0.2486374644799969
-0.24173858710292817
-0.23498162386557186
-0.22850120551440978
-0.22243196917130792
-0.21690855833351808
-0.21206562287367847
-0.20803781903981156
-0.20495980945532666
-0.20295609017666927
-0.20197334637975095
-0.20180698387148055
-0.20224759166353512
-0.2030857651429766
-0.20411210607225438
-0.20511722258920184
-0.2058917292070389
-0.20622624681437096
-0.2059114026751876
-0.20475033375877605
-0.20279500460178823
-0.20032650516670303
-0.1976392935477298
-0.195014600328842
-0.19272648077749632
-0.1910493442199821
-0.1902578444334786
-0.19062671299760603
-0.19243075692289024
-0.19593208244243243
-0.20110131303948697
-0.20761885856217688
-0.21515268190565873
-0.22337082139599462
-0.23194139079015108
-0.24053257927599758
-0.24881265147231157
-0.25644994742877203
-0.26311288262596444
-0.26848029725041866
-0.2725042025565365
-0.2754308086881767
-0.27752096331482745
-0.27903558953688035
-0.2802356858856324
-0.2813823263232841
-0.28273666024294275
-0.2845599124686181
-0.2871133832552256
-0.29065329551488206
-0.29527718815739856
-0.30089769992515913
-0.3074171105624227
-0.3147377752197028
-0.3227621119565064
-0.3313925814055487
-0.34053171430617357
-0.35008211682862755
-0.35994647057406337
-0.3700265367389163
-0.38018791829257326
-0.3902506110154421
-0.4000317686224514
-0.40934862025943364
-0.4180184705031258
-0.4258586993611695
-0.43268676227211234
-0.4383201901054047
-0.44257658916140274
-0.4452792854093741
-0.4464974775944577
-0.44663589693582506
-0.4461234716745869
-0.44538920548275907
-0.44486217746326073
-0.4449715421499194
-0.4461465295074637
-0.44881644493152795
-0.45341066924865114
-0.4603519076971382
-0.46970540146738793
-0.48100800477387207
-0.4937540671664019
-0.5074380136256963
-0.5215543445633773
-0.5355976358219731
-0.5490625386749126
-0.5614437798265334
-0.572236161412077
-0.5809390073902538
-0.5873411672501161
-0.5916512359134964
-0.594162202444326
-0.5951905842635228
-0.5950527283813859
-0.5940648113975956
-0.5925428395012127
-0.5908026484706814
-0.5891599036738255
-0.5879286135745463
-0.5872987345740563
-0.5872448782204349
-0.587719977019489
-0.5886767930664053
-0.5900679180457538
-0.5918457732314845
-0.593962609486929
-0.5963705072648007
-0.5990213766071932
-0.6018669740121895
-0.6048607225437599
-0.6079593378195117
-0.6111197486836526
-0.6142987135697715
-0.6174528205008395
-0.6205384870892072
-0.6235119605366082
-0.6263293176341569
-0.6289464647623486
-0.6313193265709647
-0.6334315260198444
-0.6353235878351811
-0.637042854477152
-0.6386364979953161
-0.6401515200286132
-0.6416347518053649
-0.6431328541432739
-0.6446923179843695
-0.6463595146432712
-0.6481807710337382
-0.6502094238588082
-0.652514607830651
-0.6551674432460934
-0.658238879991345
-0.6617996975419955
-0.6659205049630168
-0.6706717409087609
-0.6761236736229626
-0.6823464009387368
-0.6894095253142053
-0.6972787447865153
-0.705668105023202
-0.714254114966403
-0.7227131131476372
-0.7307212676878034
-0.7379545762971835
-0.7440888662754404
-0.7487997945116174
-0.7517628474841401
-0.7526537655803363
-0.751373516867806
-0.7484184242121457
-0.7443818575822633
-0.7398570165364495
-0.7354369302223746
-0.731714457377095
-0.7292822863270428
-0.728732934988034
-0.7306587508652677
-0.7356516577060126
-0.7440464406396623
-0.7554369412862797
-0.7692841466019864
-0.7850488731322878
-0.8022140566041843
-0.8201743843549705
-0.8380879977660859
-0.8551152183392597
-0.8704330431508315
-0.8832352034881722
-0.8928748075699489
-0.8991709633805315
-0.9020476673266078
-0.9014455913894747
-0.8973220831250386
-0.8896511656638147
-0.8784235377109291
-0.8636465735461157
-0.8453443230237183
-0.8235575163839314
-0.7983876741060759
-0.7701048565369297
-0.7390284537548348
-0.705494531412741
-0.6698558307382118
-0.6324817685334159
-0.5937584371751323
-0.5540886046147511
-0.5138917143782695
-0.473603884131637
-0.43348946375870845
-0.39311972393652894
-0.3519155413293996
-0.3093144681762322
-0.2647707322905418
-0.21775523706045885
-0.1677555614487215
-0.11427595999266993
-0.05683736280427987
0.005022624429910305
0.07152955733098088
0.14198475095778584
0.21543902107784318
0.2909265076549128
0.3674646750780852
0.44405255088477547
0.5195077290886623
0.5924011848113813
0.6613363453957537
0.7249738731030395
0.7821956078689793
0.8326803842070312
0.8763728300529448
0.9132748202445831
0.9434454645381556
0.9670011076082938
0.9841153290479865
0.995018943368633
1.0
0.999403783290254
0.9935408441004971
0.9823245391467899
0.9655853520553286
0.9432109617281033
0.9151462819854725
0.8813934615662078
0.842011884127434
0.7971181682447019
0.7468861674119038
0.691546970041369
0.6314297129574356
0.5671417844311781
0.49942249179046105
0.42904034592780893
0.35652381318433646
0.282461703454681
0.20746057571698162
0.13209838784729144
0.05692449661944243
-0.0175403422948206
-0.09081540002577593
-0.16251639889587177
-0.23231261034529638
-0.2999019454780675
-0.3650109165004156
-0.42739463672066735
-0.4868368205493584
-0.5431497834991242
-0.5961744421848052
-0.6457803143233471
-0.6918713069338456
-0.734417674375285
-0.7734334038240258
-0.8089611240390635
-0.8410720648815816
-0.8698660573148871
-0.8954715334044661
-0.9180455263179363
-0.9377736703250885
-0.9548702007978492
-0.9695522130985883
-0.9815248584263051
-0.990516995706658
-0.9965721762752252
-0.9997247769437233
-1.0
-0.9974138732080362
-0.9919732498079473
-0.9836758097149945
-0.972510064266536
-0.9585017476800942
-0.9420340974011085
-0.9236553142327164
-0.903905478939437
-0.8833154977619145
-0.8624071024169357
-0.8416928500974086
-0.8216761234723866
-0.8028511306870457
-0.785702905362706
-0.7706584638382337
-0.7577093471222864
-0.7466179175826977
-0.7371355297365102
-0.7290043635768884
-0.7219574245731395
-0.7157185436706945
-0.710002377291129
-0.7045144073321388
-0.6989509411675647
-0.6930314247068676
-0.686778398801991
-0.6803801879948719
-0.6740178693872032
-0.6678633455568049
-0.662079344557635
-0.6568194199197794
-0.6522236945085123
-0.6483459286992201
-0.6453227172744967
-0.6433125913010238
-0.6422444190041707
-0.6419076078766088
-0.6420898889145047
-0.6425792881321402
-0.6431641265619192
-0.6436330202543614
-0.6437748802781059
-0.6433789127199095
-0.6422346186846493
-0.6401508206361729
-0.6371642005072824
-0.6334616399936959
-0.6292329567405861
-0.6246682634112442
-0.6199579676870797
-0.6152927722676195
-0.6108636748705112
-0.6068619682315188
-0.6034792401045255
-0.6008959655846647
-0.5991402510482664
-0.5981315651196863
-0.5977873234710973
-0.5980252367927902
-0.5987633107931751
-0.5999198461987794
-0.6014134387542502
-0.6031629792223516
-0.6050876533839675
-0.6071071854139066
-0.6091452554924313
-0.611128666989921
-0.6129845916215607
-0.6146404993704725
-0.6160242518301827
-0.6170641161698249
-0.6176886606354879
-0.617826748491378
-0.6174075380198205
-0.6163663071683062
-0.6147376345161149
-0.6126391645816627
-0.6101913819260623
-0.6075150661285433
-0.6047312917864551
-0.6019614285152646
-0.5993271409485574
-0.5969503887380374
-0.5949534265535277
-0.5934507259057002
-0.5924009537346173
-0.5916218805327951
-0.5909264846788267
-0.5901280395694242
-0.5890401136194173
-0.5874765702617555
-0.5852515679475052
-0.5821795601458526
-0.5780752953441008
-0.5727642051437234
-0.5663018168994338
-0.5589687955133588
-0.5510554972127222
-0.5428525732428718
-0.5346509698672686
-0.5267419283674952
-0.51941698504325
-0.5129679712123537
-0.507687013210741
-0.5038571774692844
-0.5015032755778778
-0.5003881314607472
-0.5002845445950704
-0.5009654547061477
-0.50220386871088
-0.5037728607177782
-0.5054455720269548
-0.5069952111301317
-0.5081950537106303
-0.5088222720332538
-0.5087679928633381
-0.5080538024788994
-0.5067085037071762
-0.504760966567017
-0.5022401282688717
-0.4991749932147983
-0.4955946329984582
-0.49152818640511964
-0.4870048594116545
-0.4820542640658658
-0.4767179496051629
-0.4710522374087731
-0.4651144300824236
-0.45896189742345006
-0.4526520764207894
-0.4462424712549883
-0.439790653298195
-0.4333542611141661
-0.4269910004582602
-0.42075816057706017
-0.4146928840860463
-0.40880527620349083
-0.40310361020471863
-0.3975962265566648
-0.39229153291786445
-0.3871980041384633
-0.38232418226020737
-0.3776786765164527
-0.3732701633321561
-0.3691061129582288
-0.36512959304407766
-0.36119012676448525
-0.35712994740572135
-0.3527913554456662
-0.34801671855380023
-0.34264847159121425
-0.33652911661059925
-0.3295012228562568
-0.3214074267640882
-0.31209292360724383
-0.3015586547404613
-0.2900505532998453
-0.27783611752219417
-0.26518291283591655
-0.25235857186102073
-0.2396307944091276
-0.2272673474834569
-0.21553606527883806
-0.20470484918170118
-0.19503983625306653
-0.18666280422220993
-0.17944923325418272
-0.17325061052832424
-0.16791849041558615
-0.1633044944785188
-0.15926031147128372
-0.15563350082012894
-0.1522634011973072
-0.14900297284171415
-0.1457066776616862
-0.14228087038296178
-0.13872803914871856
-0.13506100099542584
-0.1312924797756435
-0.1274351061580138
-0.12350141762727007
-0.11950385848422773
-0.11545477984579178
-0.11136643964495074
-0.10725090877781718
-0.10310725792026465
-0.09890851647847221
-0.09462451269982541
-0.09022498164780235
-0.08567956520196096
-0.08095781205795138
-0.07602917772750595
-0.07086302453844762
-0.06542862163468022
-0.05969536073814752
-0.05367426868757674
-0.047467482797897476
-0.04118909880328836
-0.03495311925401856
-0.02887345351643944
-0.02306391777299399
-0.01763823502220585
-0.012710035078690951
-0.008392854573146202
-0.00479989132349723
-0.0019732743641555084
0.0002137939067208272
0.0019127659006192843
0.0032751872129375137
0.004452696622990526
0.0055970260940025884
0.00686000077311566
0.00839353899138362
0.010349652263772713
0.012880262035516177
0.01605130451034298
0.01970570801050875
0.023650806343323838
0.027694017015245764
0.031642850607780826
0.03530491088634924
0.03848789480028447
0.04099959248283436
0.04264788725115842
0.04324086130353
0.04267812137437432
0.04111785914440347
0.03876371927713529
0.035819439620004
0.03248885120435396
0.02897587824544745
0.02548453814245666
0.022218941478469256
0.019383292020485055
0.01718185423058305
0.01575566095357872
0.015050336651558416
0.01497398908251557
0.01543481918835532
0.016341121094897826
0.017601282111876504
0.019123782732938244
0.020817196635643187
0.022590190681465616
0.02435152520833528
0.02601193146193581
0.027488570580720184
0.02870003221629669
0.029564999204182874
0.030002247563814644
0.02993064649853716
0.029269158395612394
0.02793683882621245
0.025852836545426694
0.0229363941077374
0.019141627277969198
0.014550554826842532
0.009263695105651282
0.0033906363997460165
-0.0029538535992275072
-0.009655064816900594
-0.016598344796168618
-0.02366909869720324
-0.03075278929744152
-0.037734936991594914
-0.04451715922941191
-0.05106593579670449
-0.057364168645837155
-0.06339481734705721
-0.06914089908787735
-0.07458548867308523
-0.0797117185247348
-0.08450277868215439
-0.08894191680193841
-0.09301243815795679
-0.09671088869299427
-0.10009195341369315
-0.10322627929746753
-0.10618456613466454
-0.10903757133289715
-0.1118561099170523
-0.11471105452928565
-0.11767333542902514
-0.12081394049296545
-0.12420391521507623
-0.12791177157459288
-0.1319935323220114
-0.13650148532050022
-0.1414879752408955
-0.14700540437129617
-0.15310623261707712
-0.1598429775008786
-0.1672682141626176
-0.17543457535947427
-0.18439475146590678
-0.1941643167691004
-0.20456169641852384
-0.2153402284593503
-0.22625326755230846
-0.23705422597539316
-0.24749657362387412
-0.25733383801028664
-0.2663196042644421
-0.2742075151334151
-0.2807512709815584
-0.2857665720319884
-0.28942950243131715
-0.2920461535470039
-0.2939228488207104
-0.2953659693113614
-0.29668195369516126
-0.29817729826557615
-0.30015855693334903
-0.30293234122648804
-0.30680532029027674
-0.3120269032834764
-0.3184805166874619
-0.3259056831061615
-0.3340416382522654
-0.3426276754557296
-0.3514031456637857
-0.36010745744093087
-0.36848007696893703
-0.3762605280468425
-0.38318839209096056
-0.3890467970196778
-0.3939242737695977
-0.39804022485455137
-0.4016146084830722
-0.4048674404809598
-0.4080187942912883
-0.4112888009743976
-0.4148976492079043
-0.41906558528668836
-0.4240129131229067
-0.42992093135889
-0.43666891121968465
-0.4439953648613826
-0.45163807301434666
-0.4593348740262072
-0.4668236638618647
-0.4738423961034931
-0.48012908195053317
-0.48542179021969933
-0.4894586473449738
-0.492017969614701
-0.4932206923072182
-0.4933613751807693
-0.4927359881088682
-0.49164055858230116
-0.4903711717091228
-0.4892239702146609
-0.48849340742635816
-0.488471245447456
-0.4894542104512205
-0.4917072168137443
-0.4951919915731433
-0.49970344833702884
-0.5050347581101975
-0.5109790812763009
-0.5173295675978407
-0.5238793562161685
-0.5304215756514898
-0.5367493438028619
-0.5426557679481915
-0.5479464045704816
-0.552557405644788
-0.556502871613624
-0.5597979356871219
-0.5624577204542682
-0.564497337882899
-0.5659318893197035
-0.566776465490221
-0.5670461464988439
-0.5667560018288147
-0.5659263156891353
-0.5646383527419039
-0.5630128334332276
-0.5611711315760493
-0.5592347899394036
-0.5573257336713757
-0.5555659293070974
-0.5540773327605533
-0.5529818893245781
-0.5524015336708583
-0.5524493681574536
-0.5531233817311254
-0.5543408633677092
-0.5560174258222998
-0.5580686712288458
-0.5604101911001453
-0.5629575663278494
-0.5656263671824602
-0.5683321533133316
-0.5709904737486693
-0.5735209062668305
-0.5759021964020172
-0.578157997465436
-0.5803130713893361
-0.5823921694848191
-0.5844200324418372
-0.5864213903291944
-0.5884209625945467
-0.5904434580644018
-0.592513574944118
-0.5946528290529018
-0.5968302830529038
-0.5989719076148892
-0.6010023859768582
-0.6028463907556629
-0.6044285839470074
-0.605673616925446
-0.6065061304443856
-0.6068507546360851
-0.6066321090116542
-0.6057796492970359
-0.6043137957294413
-0.6023358190312643
-0.599949794523075
-0.5972597869042975
-0.594369850253206
-0.591384028026926
-0.5884063530614354
-0.5855408475715631
-0.5828915231509905
-0.5805600723369653
-0.5785986550674371
-0.5770118054276984
-0.5758021199802473
-0.5749721846664331
-0.5745245736342056
-0.5744618234485812
-0.5747864330916432
-0.5755008897520744
-0.5766076699974099
-0.5781072237658627
-0.5799501732517538
-0.582035317984375
-0.5842590316866394
-0.5865176774603127
-0.5887076077860095
-0.5907251645231985
-0.5924666789101993
-0.5938284715641835
-0.5947068524811736
-0.5950012986088706
-0.5947025452033379
-0.5939040016551707
-0.5927045374174568
-0.5912030113221356
-0.5894982715799977
-0.5876891557806857
-0.5858744908926934
-0.5841530932633665
-0.5826237686189017
-0.5813839963748813
-0.5804868521636267
-0.5799313616288271
-0.5797132714504132
-0.5798283176871672
-0.5802722257767237
-0.5810407105355682
-0.5821294761590377
-0.5835342162213214
-0.5852506136754598
-0.5872727827229767
-0.589532294705143
-0.5918783263619765
-0.5941544204833245
-0.5962041092378835
-0.5978709141732046
-0.5989983462156891
-0.5994299056705903
-0.5990090822220133
-0.5975793549329145
-0.5949878933139641
-0.5912611531527698
-0.5866813453803096
-0.5815502726715522
-0.5761697270803193
-0.5708414900392833
-0.5658673323599692
-0.5615489746554485
-0.5581878278515373
-0.556085155597845
-0.55553838115776
-0.5566170067850411
-0.5590383131782055
-0.562489395108852
-0.5666573367274316
-0.5712292443315967
-0.5758931553309741
-0.5803367749873547
-0.5842474217412241
-0.5873124124328579
-0.5892221055055408
-0.5898942374294758
-0.5896274758158253
-0.5887568276679229
-0.5876172983888921
-0.5865438917816463
-0.5858716100488901
-0.5859354537931174
-0.5870704220166132
-0.5896115121214529
-0.5938908596831872
-0.5999651374556435
-0.607390344996603
-0.6156694726757418
-0.6243055092625269
-0.6328014419262153
-0.6406602562358544
-0.6473849361602837
-0.6524784640681269
-0.6554438207278048
-0.6557864426293336
-0.6533271142128357
-0.6485090100190594
-0.6418482183061763
-0.633860825732146
-0.6250629173547253
-0.6159705766314547
-0.6070998854196668
-0.598966923976485
-0.5920877709588221
-0.586977199117044
-0.5839172063614172
-0.5826904354516285
-0.5830149556911333
-0.5846088347831793
-0.5871901388308036
-0.5904769323368345
-0.5941872782038902
-0.5980392377343797
-0.6017508706305001
-0.6050405902427777
-0.6077201100155419
-0.609818926218793
-0.6113975515163076
-0.6125164969716527
-0.6132362720481855
-0.6136173846090536
-0.6137203409171952
-0.6136056456353383
-0.6133338018260012
-0.6129652772636576
-0.6125464608183213
-0.6120879464346045
-0.6115947216432813
-0.6110717723749179
-0.610524082959869
-0.6099566361282807
-0.6093744130100883
-0.6087823931350189
-0.6081855544325887
-0.6075888727930192
-0.6069969954402195
-0.6064136611038483
-0.6058424510128597
-0.6052869447959983
-0.6047507204817983
-0.6042373544985853
-0.6037504216744737
-0.6032934952373696
-0.602870146814969
-0.6024839452811652
-0.6021366250483733
-0.6018243704727686
-0.6015423184198494
-0.6012856041549046
-0.6010493613430126
-0.6008287220490435
-0.6006188167376566
-0.6004147742733015
-0.6002117219202188
-0.6000047876227421
-0.5997997794775138
-0.5996378427131317
-0.5995674189928576
-0.5996369483797426
-0.5998948693366288
-0.6003896187261483
-0.6011696318107236
-0.6022833422525675
-0.6037791821136833
-0.6057055835851579
-0.6080752633422202
-0.6107714106553603
-0.6136478975868414
-0.6165585945987178
-0.619357370552833
-0.621898092710822
-0.6240346267341084
-0.6256208366839076
-0.6265105850212247
-0.6265577326092366
-0.6256804279553208
-0.6240514077100836
-0.62190641894563
-0.6194812071338547
-0.6170115161464442
-0.6147330882548738
-0.6128816641304098
-0.6116929828441082
-0.6114027818668162
-0.6122467970691702
-0.6143794795630834
-0.6176029608828149
-0.6216239363333407
-0.626149097930574
-0.6308851360902187
-0.6355387396277687
-0.6398165957585087
-0.643425390097514
-0.6460718066596479
-0.6474625278595663
-0.6473880571928414
-0.6460366710589105
-0.6437145146984053
-0.6407277501154812
-0.6373825377140834
-0.63398503629795
-0.6308414350270586
-0.628262668016609
-0.6265571693181526
-0.626029451548115
-0.6269068005258484
-0.6290150497663207
-0.632050001236475
-0.6357073940923692
